Time,V5
0.0,-0.383
0.001997602876548142,-0.384
0.003995205753096284,-0.381
0.005992808629644426,-0.382
0.007990411506192568,-0.382
0.00998801438274071,-0.379
0.011985617259288851,-0.377
0.013983220135836994,-0.38
0.015980823012385136,-0.377
0.017978425888933277,-0.376
0.01997602876548142,-0.374
0.021973631642029562,-0.37
0.023971234518577703,-0.37
0.025968837395125847,-0.368
0.027966440271673988,-0.369
0.02996404314822213,-0.365
0.03196164602477027,-0.363
0.03395924890131841,-0.363
0.035956851777866554,-0.359
0.0379544546544147,-0.361
0.03995205753096284,-0.36
0.04194966040751098,-0.359
0.043947263284059124,-0.359
0.045944866160607264,-0.36
0.047942469037155405,-0.359
0.04994007191370355,-0.356
0.051937674790251694,-0.355
0.053935277666799834,-0.353
0.055932880543347975,-0.351
0.057930483419896116,-0.352
0.05992808629644426,-0.349
0.061925689172992404,-0.35
0.06392329204954054,-0.352
0.06592089492608869,-0.349
0.06791849780263683,-0.346
0.06991610067918497,-0.346
0.07191370355573311,-0.344
0.07391130643228125,-0.344
0.0759089093088294,-0.346
0.07790651218537754,-0.346
0.07990411506192568,-0.347
0.08190171793847383,-0.346
0.08389932081502197,-0.345
0.0858969236915701,-0.344
0.08789452656811825,-0.344
0.08989212944466639,-0.345
0.09188973232121453,-0.34
0.09388733519776267,-0.337
0.09588493807431081,-0.336
0.09788254095085897,-0.332
0.0998801438274071,-0.333
0.10187774670395525,-0.334
0.10387534958050339,-0.33
0.10587295245705153,-0.326
0.10787055533359967,-0.323
0.10986815821014781,-0.32
0.11186576108669595,-0.318
0.11386336396324409,-0.316
0.11586096683979223,-0.316
0.11785856971634039,-0.313
0.11985617259288853,-0.308
0.12185377546943667,-0.304
0.12385137834598481,-0.302
0.12584898122253294,-0.299
0.1278465840990811,-0.294
0.12984418697562924,-0.292
0.13184178985217737,-0.29
0.13383939272872553,-0.289
0.13583699560527365,-0.289
0.1378345984818218,-0.286
0.13983220135836993,-0.284
0.1418298042349181,-0.281
0.14382740711146622,-0.276
0.14582500998801437,-0.271
0.1478226128645625,-0.268
0.14982021574111065,-0.267
0.1518178186176588,-0.266
0.15381542149420693,-0.262
0.1558130243707551,-0.258
0.15781062724730321,-0.256
0.15980823012385137,-0.251
0.1618058330003995,-0.25
0.16380343587694765,-0.247
0.16580103875349578,-0.245
0.16779864163004393,-0.242
0.16979624450659206,-0.236
0.1717938473831402,-0.234
0.17379145025968837,-0.231
0.1757890531362365,-0.225
0.17778665601278465,-0.22
0.17978425888933278,-0.215
0.18178186176588093,-0.21
0.18377946464242906,-0.204
0.1857770675189772,-0.2
0.18777467039552534,-0.195
0.1897722732720735,-0.189
0.19176987614862162,-0.184
0.19376747902516978,-0.178
0.19576508190171793,-0.174
0.19776268477826606,-0.169
0.1997602876548142,-0.168
0.20175789053136234,-0.165
0.2037554934079105,-0.161
0.20575309628445862,-0.155
0.20775069916100677,-0.148
0.2097483020375549,-0.143
0.21174590491410306,-0.137
0.2137435077906512,-0.132
0.21574111066719934,-0.127
0.2177387135437475,-0.122
0.21973631642029562,-0.12
0.22173391929684377,-0.116
0.2237315221733919,-0.109
0.22572912504994005,-0.1
0.22772672792648818,-0.094
0.22972433080303634,-0.091
0.23172193367958446,-0.087
0.23371953655613262,-0.085
0.23571713943268077,-0.082
0.2377147423092289,-0.076
0.23971234518577705,-0.073
0.24170994806232518,-0.069
0.24370755093887334,-0.067
0.24570515381542146,-0.066
0.24770275669196962,-0.062
0.24970035956851774,-0.06
0.25169796244506587,-0.056
0.253695565321614,-0.051
0.2556931681981622,-0.049
0.25769077107471033,-0.048
0.2596883739512585,-0.043
0.2616859768278066,-0.037
0.26368357970435474,-0.035
0.2656811825809029,-0.03
0.26767878545745105,-0.027
0.26967638833399915,-0.026
0.2716739912105473,-0.021
0.27367159408709546,-0.017
0.2756691969636436,-0.016
0.27766679984019177,-0.013
0.27966440271673987,-0.012
0.281662005593288,-0.011
0.2836596084698362,-0.01
0.28565721134638433,-0.009
0.28765481422293243,-0.009
0.2896524170994806,-0.009
0.29165001997602874,-0.009
0.2936476228525769,-0.011
0.295645225729125,-0.011
0.29764282860567315,-0.015
0.2996404314822213,-0.017
0.30163803435876946,-0.019
0.3036356372353176,-0.022
0.3056332401118657,-0.025
0.30763084298841387,-0.03
0.309628445864962,-0.032
0.3116260487415102,-0.034
0.3136236516180583,-0.038
0.31562125449460643,-0.045
0.3176188573711546,-0.052
0.31961646024770274,-0.058
0.3216140631242509,-0.063
0.323611666000799,-0.071
0.32560926887734715,-0.079
0.3276068717538953,-0.084
0.32960447463044346,-0.087
0.33160207750699155,-0.096
0.3335996803835397,-0.105
0.33559728326008786,-0.112
0.337594886136636,-0.121
0.3395924890131841,-0.129
0.3415900918897323,-0.137
0.3435876947662804,-0.142
0.3455852976428286,-0.148
0.34758290051937674,-0.152
0.34958050339592484,-0.157
0.351578106272473,-0.165
0.35357570914902114,-0.174
0.3555733120255693,-0.182
0.3575709149021174,-0.191
0.35956851777866555,-0.198
0.3615661206552137,-0.199
0.36356372353176186,-0.206
0.36556132640831,-0.214
0.3675589292848581,-0.219
0.36955653216140627,-0.224
0.3715541350379544,-0.228
0.3735517379145026,-0.232
0.3755493407910507,-0.235
0.37754694366759883,-0.24
0.379544546544147,-0.245
0.38154214942069514,-0.25
0.38353975229724324,-0.254
0.3855373551737914,-0.255
0.38753495805033955,-0.259
0.3895325609268877,-0.263
0.39153016380343586,-0.264
0.39352776667998396,-0.268
0.3955253695565321,-0.271
0.39752297243308027,-0.275
0.3995205753096284,-0.278
0.4015181781861765,-0.28
0.4035157810627247,-0.285
0.40551338393927283,-0.289
0.407510986815821,-0.295
0.40950858969236914,-0.298
0.41150619256891724,-0.298
0.4135037954454654,-0.3
0.41550139832201355,-0.302
0.4174990011985617,-0.304
0.4194966040751098,-0.306
0.42149420695165796,-0.305
0.4234918098282061,-0.306
0.42548941270475427,-0.308
0.4274870155813024,-0.309
0.4294846184578505,-0.31
0.4314822213343987,-0.309
0.43347982421094683,-0.312
0.435477427087495,-0.316
0.4374750299640431,-0.315
0.43947263284059124,-0.313
0.4414702357171394,-0.31
0.44346783859368755,-0.312
0.44546544147023565,-0.315
0.4474630443467838,-0.316
0.44946064722333195,-0.317
0.4514582500998801,-0.316
0.45345585297642826,-0.317
0.45545345585297636,-0.315
0.4574510587295245,-0.314
0.4594486616060727,-0.316
0.4614462644826208,-0.313
0.4634438673591689,-0.313
0.4654414702357171,-0.314
0.46743907311226524,-0.312
0.4694366759888134,-0.311
0.47143427886536154,-0.312
0.47343188174190964,-0.311
0.4754294846184578,-0.309
0.47742708749500595,-0.305
0.4794246903715541,-0.308
0.4814222932481022,-0.312
0.48341989612465036,-0.313
0.4854174990011985,-0.317
0.48741510187774667,-0.319
0.48941270475429477,-0.318
0.4914103076308429,-0.316
0.4934079105073911,-0.316
0.49540551338393923,-0.316
0.4974031162604874,-0.314
0.4994007191370355,-0.317
0.5013983220135837,-0.319
0.5033959248901317,-0.318
0.5053935277666799,-0.316
0.507391130643228,-0.316
0.5093887335197762,-0.317
0.5113863363963244,-0.315
0.5133839392728725,-0.315
0.5153815421494207,-0.316
0.5173791450259688,-0.314
0.519376747902517,-0.316
0.521374350779065,-0.316
0.5233719536556132,-0.315
0.5253695565321613,-0.318
0.5273671594087095,-0.322
0.5293647622852576,-0.321
0.5313623651618058,-0.32
0.533359968038354,-0.32
0.5353575709149021,-0.319
0.5373551737914503,-0.32
0.5393527766679983,-0.319
0.5413503795445465,-0.319
0.5433479824210946,-0.321
0.5453455852976428,-0.32
0.5473431881741909,-0.32
0.5493407910507391,-0.319
0.5513383939272872,-0.318
0.5533359968038354,-0.319
0.5553335996803835,-0.323
0.5573312025569316,-0.323
0.5593288054334797,-0.321
0.5613264083100279,-0.32
0.563324011186576,-0.322
0.5653216140631242,-0.326
0.5673192169396724,-0.325
0.5693168198162205,-0.325
0.5713144226927687,-0.326
0.5733120255693167,-0.325
0.5753096284458649,-0.325
0.577307231322413,-0.325
0.5793048341989612,-0.324
0.5813024370755093,-0.325
0.5833000399520575,-0.324
0.5852976428286056,-0.322
0.5872952457051538,-0.321
0.589292848581702,-0.322
0.59129045145825,-0.321
0.5932880543347981,-0.321
0.5952856572113463,-0.321
0.5972832600878945,-0.319
0.5992808629644426,-0.318
0.6012784658409908,-0.317
0.6032760687175389,-0.32
0.6052736715940871,-0.321
0.6072712744706352,-0.321
0.6092688773471833,-0.321
0.6112664802237314,-0.321
0.6132640831002796,-0.32
0.6152616859768277,-0.318
0.6172592888533759,-0.319
0.619256891729924,-0.323
0.6212544946064722,-0.325
0.6232520974830204,-0.323
0.6252497003595685,-0.321
0.6272473032361165,-0.321
0.6292449061126647,-0.319
0.6312425089892129,-0.318
0.633240111865761,-0.321
0.6352377147423092,-0.321
0.6372353176188573,-0.322
0.6392329204954055,-0.322
0.6412305233719536,-0.321
0.6432281262485018,-0.323
0.6452257291250498,-0.324
0.647223332001598,-0.325
0.6492209348781461,-0.324
0.6512185377546943,-0.325
0.6532161406312424,-0.328
0.6552137435077906,-0.326
0.6572113463843388,-0.326
0.6592089492608869,-0.326
0.6612065521374351,-0.325
0.6632041550139831,-0.324
0.6652017578905313,-0.324
0.6671993607670794,-0.321
0.6691969636436276,-0.323
0.6711945665201757,-0.323
0.6731921693967239,-0.321
0.675189772273272,-0.322
0.6771873751498202,-0.32
0.6791849780263682,-0.32
0.6811825809029164,-0.319
0.6831801837794645,-0.323
0.6851777866560127,-0.327
0.6871753895325609,-0.326
0.689172992409109,-0.327
0.6911705952856572,-0.325
0.6931681981622053,-0.324
0.6951658010387535,-0.326
0.6971634039153015,-0.326
0.6991610067918497,-0.325
0.7011586096683978,-0.326
0.703156212544946,-0.326
0.7051538154214941,-0.322
0.7071514182980423,-0.322
0.7091490211745904,-0.322
0.7111466240511386,-0.321
0.7131442269276868,-0.321
0.7151418298042348,-0.32
0.717139432680783,-0.32
0.7191370355573311,-0.32
0.7211346384338793,-0.322
0.7231322413104274,-0.323
0.7251298441869756,-0.326
0.7271274470635237,-0.327
0.7291250499400719,-0.327
0.73112265281662,-0.327
0.7331202556931681,-0.328
0.7351178585697162,-0.327
0.7371154614462644,-0.327
0.7391130643228125,-0.328
0.7411106671993607,-0.328
0.7431082700759088,-0.327
0.745105872952457,-0.326
0.7471034758290052,-0.324
0.7491010787055533,-0.326
0.7510986815821014,-0.329
0.7530962844586495,-0.328
0.7550938873351977,-0.328
0.7570914902117458,-0.328
0.759089093088294,-0.33
0.7610866959648421,-0.329
0.7630842988413903,-0.328
0.7650819017179384,-0.331
0.7670795045944865,-0.332
0.7690771074710346,-0.333
0.7710747103475828,-0.332
0.773072313224131,-0.331
0.7750699161006791,-0.33
0.7770675189772273,-0.332
0.7790651218537754,-0.334
0.7810627247303236,-0.332
0.7830603276068717,-0.333
0.7850579304834198,-0.333
0.7870555333599679,-0.331
0.7890531362365161,-0.332
0.7910507391130642,-0.331
0.7930483419896124,-0.331
0.7950459448661605,-0.335
0.7970435477427087,-0.335
0.7990411506192568,-0.335
0.801038753495805,-0.335
0.803036356372353,-0.335
0.8050339592489012,-0.338
0.8070315621254494,-0.341
0.8090291650019975,-0.342
0.8110267678785457,-0.34
0.8130243707550938,-0.339
0.815021973631642,-0.339
0.8170195765081901,-0.341
0.8190171793847383,-0.342
0.8210147822612863,-0.339
0.8230123851378345,-0.339
0.8250099880143826,-0.339
0.8270075908909308,-0.339
0.8290051937674789,-0.339
0.8310027966440271,-0.338
0.8330003995205753,-0.339
0.8349980023971234,-0.339
0.8369956052736716,-0.339
0.8389932081502196,-0.341
0.8409908110267678,-0.34
0.8429884139033159,-0.34
0.8449860167798641,-0.343
0.8469836196564122,-0.344
0.8489812225329604,-0.345
0.8509788254095085,-0.343
0.8529764282860567,-0.344
0.8549740311626048,-0.345
0.8569716340391529,-0.346
0.858969236915701,-0.347
0.8609668397922492,-0.347
0.8629644426687973,-0.348
0.8649620455453455,-0.345
0.8669596484218937,-0.344
0.8689572512984418,-0.346
0.87095485417499,-0.347
0.872952457051538,-0.345
0.8749500599280862,-0.345
0.8769476628046343,-0.347
0.8789452656811825,-0.346
0.8809428685577306,-0.346
0.8829404714342788,-0.347
0.8849380743108269,-0.346
0.8869356771873751,-0.348
0.8889332800639232,-0.35
0.8909308829404713,-0.352
0.8929284858170194,-0.351
0.8949260886935676,-0.35
0.8969236915701158,-0.352
0.8989212944466639,-0.353
0.9009188973232121,-0.355
0.9029165001997602,-0.354
0.9049141030763084,-0.353
0.9069117059528565,-0.353
0.9089093088294046,-0.354
0.9109069117059527,-0.353
0.9129045145825009,-0.352
0.914902117459049,-0.351
0.9168997203355972,-0.352
0.9188973232121453,-0.353
0.9208949260886935,-0.353
0.9228925289652417,-0.354
0.9248901318417898,-0.356
0.9268877347183379,-0.358
0.928885337594886,-0.358
0.9308829404714342,-0.358
0.9328805433479823,-0.357
0.9348781462245305,-0.355
0.9368757491010786,-0.355
0.9388733519776268,-0.355
0.9408709548541749,-0.355
0.9428685577307231,-0.355
0.9448661606072711,-0.356
0.9468637634838193,-0.355
0.9488613663603674,-0.356
0.9508589692369156,-0.358
0.9528565721134638,-0.358
0.9548541749900119,-0.358
0.9568517778665601,-0.359
0.9588493807431082,-0.358
0.9608469836196564,-0.358
0.9628445864962044,-0.359
0.9648421893727526,-0.36
0.9668397922493007,-0.359
0.9688373951258489,-0.357
0.970834998002397,-0.357
0.9728326008789452,-0.358
0.9748302037554933,-0.358
0.9768278066320415,-0.358
0.9788254095085895,-0.357
0.9808230123851377,-0.358
0.9828206152616858,-0.359
0.984818218138234,-0.357
0.9868158210147822,-0.358
0.9888134238913303,-0.36
0.9908110267678785,-0.361
0.9928086296444266,-0.361
0.9948062325209748,-0.361
0.9968038353975228,-0.361
0.998801438274071,-0.361
1.0007990411506191,-0.361
1.0027966440271674,-0.362
1.0047942469037154,-0.363
1.0067918497802635,-0.365
1.0087894526568117,-0.366
1.0107870555333598,-0.366
1.012784658409908,-0.367
1.014782261286456,-0.367
1.0167798641630044,-0.368
1.0187774670395524,-0.369
1.0207750699161007,-0.367
1.0227726727926487,-0.365
1.0247702756691968,-0.365
1.026767878545745,-0.362
1.028765481422293,-0.36
1.0307630842988413,-0.36
1.0327606871753894,-0.363
1.0347582900519376,-0.363
1.0367558929284857,-0.363
1.038753495805034,-0.362
1.040751098681582,-0.362
1.04274870155813,-0.361
1.0447463044346783,-0.363
1.0467439073112264,-0.365
1.0487415101877746,-0.364
1.0507391130643227,-0.365
1.052736715940871,-0.363
1.054734318817419,-0.36
1.0567319216939672,-0.361
1.0587295245705153,-0.363
1.0607271274470633,-0.362
1.0627247303236116,-0.36
1.0647223332001596,-0.36
1.066719936076708,-0.359
1.068717538953256,-0.36
1.0707151418298042,-0.363
1.0727127447063523,-0.362
1.0747103475829005,-0.364
1.0767079504594486,-0.364
1.0787055533359966,-0.361
1.0807031562125449,-0.363
1.082700759089093,-0.364
1.0846983619656412,-0.363
1.0866959648421892,-0.365
1.0886935677187375,-0.363
1.0906911705952855,-0.364
1.0926887734718338,-0.363
1.0946863763483818,-0.363
1.0966839792249299,-0.366
1.0986815821014781,-0.364
1.1006791849780262,-0.364
1.1026767878545745,-0.363
1.1046743907311225,-0.363
1.1066719936076708,-0.363
1.1086695964842188,-0.361
1.110667199360767,-0.362
1.1126648022373151,-0.363
1.1146624051138632,-0.363
1.1166600079904114,-0.363
1.1186576108669595,-0.365
1.1206552137435077,-0.365
1.1226528166200558,-0.364
1.124650419496604,-0.364
1.126648022373152,-0.361
1.1286456252497001,-0.361
1.1306432281262484,-0.365
1.1326408310027964,-0.365
1.1346384338793447,-0.363
1.1366360367558928,-0.363
1.138633639632441,-0.362
1.140631242508989,-0.36
1.1426288453855373,-0.359
1.1446264482620854,-0.359
1.1466240511386334,-0.358
1.1486216540151817,-0.358
1.1506192568917297,-0.359
1.152616859768278,-0.359
1.154614462644826,-0.361
1.1566120655213743,-0.362
1.1586096683979223,-0.361
1.1606072712744706,-0.359
1.1626048741510187,-0.36
1.1646024770275667,-0.36
1.166600079904115,-0.358
1.168597682780663,-0.36
1.1705952856572113,-0.362
1.1725928885337593,-0.361
1.1745904914103076,-0.36
1.1765880942868556,-0.359
1.178585697163404,-0.359
1.180583300039952,-0.36
1.1825809029165,-0.359
1.1845785057930482,-0.359
1.1865761086695963,-0.358
1.1885737115461446,-0.358
1.1905713144226926,-0.357
1.1925689172992409,-0.358
1.194566520175789,-0.36
1.1965641230523372,-0.359
1.1985617259288852,-0.357
1.2005593288054333,-0.354
1.2025569316819815,-0.355
1.2045545345585296,-0.358
1.2065521374350778,-0.359
1.2085497403116259,-0.36
1.2105473431881741,-0.36
1.2125449460647222,-0.361
1.2145425489412705,-0.358
1.2165401518178185,-0.356
1.2185377546943665,-0.356
1.2205353575709148,-0.353
1.2225329604474628,-0.352
1.2245305633240111,-0.349
1.2265281662005592,-0.348
1.2285257690771074,-0.347
1.2305233719536555,-0.344
1.2325209748302037,-0.344
1.2345185777067518,-0.342
1.2365161805832998,-0.34
1.238513783459848,-0.339
1.2405113863363961,-0.337
1.2425089892129444,-0.337
1.2445065920894924,-0.339
1.2465041949660407,-0.339
1.2485017978425887,-0.339
1.250499400719137,-0.34
1.252497003595685,-0.338
1.254494606472233,-0.337
1.2564922093487814,-0.338
1.2584898122253294,-0.336
1.2604874151018777,-0.336
1.2624850179784257,-0.336
1.264482620854974,-0.332
1.266480223731522,-0.331
1.2684778266080703,-0.332
1.2704754294846183,-0.332
1.2724730323611664,-0.333
1.2744706352377146,-0.333
1.2764682381142627,-0.33
1.278465840990811,-0.328
1.280463443867359,-0.325
1.2824610467439073,-0.322
1.2844586496204553,-0.322
1.2864562524970036,-0.32
1.2884538553735516,-0.318
1.2904514582500997,-0.319
1.292449061126648,-0.317
1.294446664003196,-0.31
1.2964442668797442,-0.307
1.2984418697562923,-0.306
1.3004394726328405,-0.304
1.3024370755093886,-0.303
1.3044346783859369,-0.302
1.306432281262485,-0.304
1.308429884139033,-0.306
1.3104274870155812,-0.305
1.3124250898921292,-0.305
1.3144226927686775,-0.303
1.3164202956452256,-0.305
1.3184178985217738,-0.304
1.3204155013983219,-0.304
1.3224131042748701,-0.308
1.3244107071514182,-0.31
1.3264083100279662,-0.312
1.3284059129045145,-0.31
1.3304035157810625,-0.311
1.3324011186576108,-0.309
1.3343987215341588,-0.307
1.336396324410707,-0.306
1.3383939272872551,-0.303
1.3403915301638032,-0.305
1.3423891330403515,-0.304
1.3443867359168995,-0.301
1.3463843387934478,-0.301
1.3483819416699958,-0.298
1.350379544546544,-0.296
1.3523771474230921,-0.295
1.3543747502996404,-0.294
1.3563723531761884,-0.296
1.3583699560527365,-0.298
1.3603675589292847,-0.297
1.3623651618058328,-0.298
1.364362764682381,-0.299
1.366360367558929,-0.296
1.3683579704354774,-0.297
1.3703555733120254,-0.299
1.3723531761885737,-0.3
1.3743507790651217,-0.301
1.3763483819416698,-0.297
1.378345984818218,-0.296
1.380343587694766,-0.297
1.3823411905713143,-0.293
1.3843387934478624,-0.294
1.3863363963244106,-0.298
1.3883339992009587,-0.301
1.390331602077507,-0.303
1.392329204954055,-0.305
1.394326807830603,-0.309
1.3963244107071513,-0.31
1.3983220135836993,-0.312
1.4003196164602476,-0.317
1.4023172193367957,-0.322
1.404314822213344,-0.328
1.406312425089892,-0.333
1.4083100279664402,-0.335
1.4103076308429883,-0.335
1.4123052337195363,-0.337
1.4143028365960846,-0.338
1.4163004394726326,-0.342
1.4182980423491809,-0.344
1.420295645225729,-0.345
1.4222932481022772,-0.348
1.4242908509788252,-0.348
1.4262884538553735,-0.35
1.4282860567319215,-0.351
1.4302836596084696,-0.352
1.4322812624850179,-0.355
1.434278865361566,-0.36
1.4362764682381142,-0.363
1.4382740711146622,-0.363
1.4402716739912105,-0.366
1.4422692768677585,-0.366
1.4442668797443068,-0.369
1.4462644826208548,-0.369
1.4482620854974029,-0.371
1.4502596883739511,-0.372
1.4522572912504992,-0.369
1.4542548941270474,-0.368
1.4562524970035955,-0.368
1.4582500998801438,-0.371
1.4602477027566918,-0.372
1.46224530563324,-0.372
1.464242908509788,-0.372
1.4662405113863362,-0.372
1.4682381142628844,-0.373
1.4702357171394325,-0.372
1.4722333200159807,-0.375
1.4742309228925288,-0.377
1.476228525769077,-0.374
1.478226128645625,-0.373
1.4802237315221733,-0.372
1.4822213343987214,-0.372
1.4842189372752694,-0.374
1.4862165401518177,-0.376
1.4882141430283657,-0.378
1.490211745904914,-0.379
1.492209348781462,-0.38
1.4942069516580103,-0.38
1.4962045545345584,-0.381
1.4982021574111066,-0.384
1.5001997602876547,-0.384
1.5021973631642027,-0.386
1.504194966040751,-0.387
1.506192568917299,-0.388
1.5081901717938473,-0.39
1.5101877746703953,-0.392
1.5121853775469436,-0.394
1.5141829804234916,-0.398
1.51618058330004,-0.406
1.518178186176588,-0.408
1.520175789053136,-0.406
1.5221733919296843,-0.41
1.5241709948062323,-0.416
1.5261685976827806,-0.421
1.5281662005593286,-0.422
1.5301638034358769,-0.428
1.532161406312425,-0.428
1.534159009188973,-0.409
1.5361566120655212,-0.384
1.5381542149420693,-0.353
1.5401518178186175,-0.321
1.5421494206951656,-0.285
1.5441470235717139,-0.242
1.546144626448262,-0.199
1.5481422293248102,-0.159
1.5501398322013582,-0.115
1.5521374350779062,-0.048
1.5541350379544545,0.045
1.5561326408310026,0.147
1.5581302437075508,0.249
1.5601278465840989,0.354
1.5621254494606471,0.48
1.5641230523371952,0.622
1.5661206552137434,0.77
1.5681182580902915,0.918
1.5701158609668395,1.052
1.5721134638433878,1.177
1.5741110667199358,1.292
1.576108669596484,1.404
1.5781062724730321,1.504
1.5801038753495804,1.577
1.5821014782261285,1.626
1.5840990811026767,1.66
1.5860966839792248,1.683
1.5880942868557728,1.669
1.590091889732321,1.636
1.5920894926088691,1.6
1.5940870954854174,1.536
1.5960846983619654,1.46
1.5980823012385137,1.391
1.6000799041150617,1.317
1.60207750699161,1.235
1.604075109868158,1.155
1.606072712744706,1.073
1.6080703156212544,0.997
1.6100679184978024,0.916
1.6120655213743507,0.837
1.6140631242508987,0.759
1.616060727127447,0.693
1.618058330003995,0.65
1.6200559328805433,0.603
1.6220535357570913,0.55
1.6240511386336394,0.496
1.6260487415101876,0.433
1.6280463443867357,0.372
1.630043947263284,0.312
1.632041550139832,0.255
1.6340391530163803,0.207
1.6360367558929283,0.159
1.6380343587694766,0.114
1.6400319616460246,0.073
1.6420295645225726,0.034
1.644027167399121,-0.004
1.646024770275669,-0.043
1.6480223731522172,-0.072
1.6500199760287653,-0.107
1.6520175789053135,-0.136
1.6540151817818616,-0.152
1.6560127846584098,-0.171
1.6580103875349579,-0.182
1.660007990411506,-0.191
1.6620055932880542,-0.204
1.6640031961646022,-0.221
1.6660007990411505,-0.232
1.6679984019176985,-0.237
1.6699960047942468,-0.241
1.6719936076707949,-0.245
1.6739912105473431,-0.252
1.6759888134238912,-0.256
1.6779864163004392,-0.26
1.6799840191769875,-0.266
1.6819816220535355,-0.274
1.6839792249300838,-0.279
1.6859768278066318,-0.286
1.68797443068318,-0.291
1.6899720335597281,-0.294
1.6919696364362764,-0.298
1.6939672393128244,-0.301
1.6959648421893725,-0.303
1.6979624450659208,-0.306
1.6999600479424688,-0.307
1.701957650819017,-0.31
1.703955253695565,-0.312
1.7059528565721134,-0.315
1.7079504594486614,-0.318
1.7099480623252097,-0.32
1.7119456652017577,-0.32
1.7139432680783058,-0.322
1.715940870954854,-0.326
1.717938473831402,-0.328
1.7199360767079503,-0.33
1.7219336795844984,-0.332
1.7239312824610467,-0.333
1.7259288853375947,-0.335
1.727926488214143,-0.336
1.729924091090691,-0.336
1.731921693967239,-0.335
1.7339192968437873,-0.335
1.7359168997203354,-0.336
1.7379145025968836,-0.337
1.7399121054734317,-0.338
1.74190970834998,-0.341
1.743907311226528,-0.338
1.745904914103076,-0.336
1.7479025169796243,-0.337
1.7499001198561723,-0.338
1.7518977227327206,-0.341
1.7538953256092686,-0.341
1.755892928485817,-0.342
1.757890531362365,-0.339
1.7598881342389132,-0.336
1.7618857371154613,-0.336
1.7638833399920093,-0.337
1.7658809428685576,-0.339
1.7678785457451056,-0.338
1.7698761486216539,-0.336
1.771873751498202,-0.336
1.7738713543747502,-0.336
1.7758689572512982,-0.336
1.7778665601278465,-0.334
1.7798641630043945,-0.337
1.7818617658809426,-0.338
1.7838593687574908,-0.338
1.785856971634039,-0.336
1.7878545745105872,-0.337
1.7898521773871352,-0.339
1.7918497802636835,-0.334
1.7938473831402315,-0.334
1.7958449860167798,-0.335
1.7978425888933278,-0.332
1.7998401917698759,-0.332
1.8018377946464241,-0.335
1.8038353975229722,-0.337
1.8058330003995204,-0.337
1.8078306032760685,-0.335
1.8098282061526167,-0.331
1.8118258090291648,-0.332
1.813823411905713,-0.331
1.815821014782261,-0.329
1.8178186176588091,-0.329
1.8198162205353574,-0.328
1.8218138234119055,-0.328
1.8238114262884537,-0.326
1.8258090291650018,-0.327
1.82780663204155,-0.328
1.829804234918098,-0.327
1.8318018377946463,-0.327
1.8337994406711944,-0.327
1.8357970435477424,-0.325
1.8377946464242907,-0.325
1.8397922493008387,-0.325
1.841789852177387,-0.323
1.843787455053935,-0.325
1.8457850579304833,-0.325
1.8477826608070314,-0.325
1.8497802636835796,-0.326
1.8517778665601277,-0.325
1.8537754694366757,-0.325
1.855773072313224,-0.323
1.857770675189772,-0.322
1.8597682780663203,-0.323
1.8617658809428683,-0.323
1.8637634838194166,-0.32
1.8657610866959646,-0.319
1.867758689572513,-0.321
1.869756292449061,-0.318
1.871753895325609,-0.316
1.8737514982021573,-0.316
1.8757491010787053,-0.313
1.8777467039552536,-0.314
1.8797443068318016,-0.313
1.8817419097083499,-0.311
1.883739512584898,-0.312
1.8857371154614462,-0.313
1.8877347183379942,-0.31
1.8897323212145423,-0.31
1.8917299240910905,-0.311
1.8937275269676386,-0.309
1.8957251298441868,-0.305
1.8977227327207349,-0.303
1.8997203355972831,-0.303
1.9017179384738312,-0.301
1.9037155413503795,-0.299
1.9057131442269275,-0.299
1.9077107471034755,-0.298
1.9097083499800238,-0.295
1.9117059528565719,-0.296
1.9137035557331201,-0.296
1.9157011586096682,-0.293
1.9176987614862164,-0.292
1.9196963643627645,-0.291
1.9216939672393127,-0.291
1.9236915701158608,-0.291
1.9256891729924088,-0.291
1.927686775868957,-0.29
1.9296843787455051,-0.287
1.9316819816220534,-0.284
1.9336795844986014,-0.282
1.9356771873751497,-0.281
1.9376747902516978,-0.281
1.939672393128246,-0.279
1.941669996004794,-0.278
1.943667598881342,-0.277
1.9456652017578904,-0.274
1.9476628046344384,-0.273
1.9496604075109867,-0.271
1.9516580103875347,-0.27
1.953655613264083,-0.268
1.955653216140631,-0.266
1.957650819017179,-0.266
1.9596484218937273,-0.266
1.9616460247702754,-0.264
1.9636436276468237,-0.263
1.9656412305233717,-0.261
1.96763883339992,-0.259
1.969636436276468,-0.256
1.9716340391530163,-0.253
1.9736316420295643,-0.248
1.9756292449061124,-0.245
1.9776268477826606,-0.246
1.9796244506592087,-0.243
1.981622053535757,-0.241
1.983619656412305,-0.237
1.9856172592888532,-0.232
1.9876148621654013,-0.231
1.9896124650419496,-0.229
1.9916100679184976,-0.226
1.9936076707950456,-0.224
1.995605273671594,-0.22
1.997602876548142,-0.215
1.9996004794246902,-0.214
2.0015980823012383,-0.212
2.0035956851777863,-0.209
2.005593288054335,-0.205
2.007590890930883,-0.202
2.009588493807431,-0.199
2.011586096683979,-0.195
2.013583699560527,-0.189
2.0155813024370755,-0.183
2.0175789053136235,-0.18
2.0195765081901715,-0.176
2.0215741110667196,-0.172
2.023571713943268,-0.168
2.025569316819816,-0.162
2.027566919696364,-0.16
2.029564522572912,-0.153
2.0315621254494602,-0.149
2.0335597283260087,-0.144
2.0355573312025568,-0.14
2.037554934079105,-0.137
2.039552536955653,-0.132
2.0415501398322013,-0.128
2.0435477427087494,-0.123
2.0455453455852974,-0.12
2.0475429484618455,-0.115
2.0495405513383935,-0.108
2.051538154214942,-0.105
2.05353575709149,-0.101
2.055533359968038,-0.095
2.057530962844586,-0.091
2.0595285657211346,-0.086
2.0615261685976827,-0.081
2.0635237714742307,-0.076
2.0655213743507788,-0.07
2.067518977227327,-0.065
2.0695165801038753,-0.061
2.0715141829804233,-0.054
2.0735117858569714,-0.051
2.0755093887335194,-0.046
2.077506991610068,-0.043
2.079504594486616,-0.041
2.081502197363164,-0.037
2.083499800239712,-0.034
2.08549740311626,-0.031
2.0874950059928086,-0.025
2.0894926088693566,-0.021
2.0914902117459047,-0.018
2.0934878146224527,-0.013
2.095485417499001,-0.009
2.0974830203755492,-0.004
2.0994806232520973,-0.001
2.1014782261286453,-0.001
2.1034758290051934,0.006
2.105473431881742,0.011
2.10747103475829,0.013
2.109468637634838,0.017
2.111466240511386,0.021
2.1134638433879345,0.025
2.1154614462644825,0.028
2.1174590491410306,0.029
2.1194566520175786,0.033
2.1214542548941266,0.035
2.123451857770675,0.036
2.125449460647223,0.037
2.127447063523771,0.037
2.1294446664003193,0.036
2.1314422692768678,0.039
2.133439872153416,0.04
2.135437475029964,0.038
2.137435077906512,0.039
2.13943268078306,0.038
2.1414302836596084,0.038
2.1434278865361565,0.038
2.1454254894127045,0.036
2.1474230922892525,0.035
2.149420695165801,0.029
2.151418298042349,0.026
2.153415900918897,0.025
2.155413503795445,0.019
2.157411106671993,0.013
2.1594087095485417,0.007
2.1614063124250897,0.004
2.163403915301638,-0.004
2.165401518178186,-0.011
2.1673991210547343,-0.017
2.1693967239312824,-0.022
2.1713943268078304,-0.031
2.1733919296843784,-0.036
2.1753895325609265,-0.042
2.177387135437475,-0.051
2.179384738314023,-0.056
2.181382341190571,-0.062
2.183379944067119,-0.069
2.1853775469436676,-0.074
2.1873751498202156,-0.081
2.1893727526967637,-0.086
2.1913703555733117,-0.095
2.1933679584498598,-0.103
2.1953655613264083,-0.109
2.1973631642029563,-0.116
2.1993607670795043,-0.12
2.2013583699560524,-0.125
2.203355972832601,-0.133
2.205353575709149,-0.139
2.207351178585697,-0.144
2.209348781462245,-0.152
2.211346384338793,-0.159
2.2133439872153415,-0.162
2.2153415900918896,-0.164
2.2173391929684376,-0.171
2.2193367958449857,-0.176
2.221334398721534,-0.181
2.223332001598082,-0.184
2.2253296044746302,-0.186
2.2273272073511783,-0.194
2.2293248102277263,-0.199
2.231322413104275,-0.2
2.233320015980823,-0.202
2.235317618857371,-0.206
2.237315221733919,-0.211
2.2393128246104674,-0.215
2.2413104274870155,-0.217
2.2433080303635635,-0.221
2.2453056332401116,-0.225
2.2473032361166596,-0.227
2.249300838993208,-0.228
2.251298441869756,-0.23
2.253296044746304,-0.233
2.2552936476228522,-0.235
2.2572912504994003,-0.239
2.2592888533759488,-0.239
2.261286456252497,-0.24
2.263284059129045,-0.241
2.265281662005593,-0.241
2.2672792648821414,-0.242
2.2692768677586894,-0.243
2.2712744706352375,-0.244
2.2732720735117855,-0.245
2.2752696763883336,-0.246
2.277267279264882,-0.246
2.27926488214143,-0.245
2.281262485017978,-0.249
2.283260087894526,-0.252
2.2852576907710747,-0.252
2.2872552936476227,-0.254
2.2892528965241707,-0.254
2.291250499400719,-0.253
2.293248102277267,-0.252
2.2952457051538153,-0.254
2.2972433080303634,-0.255
2.2992409109069114,-0.253
2.3012385137834594,-0.254
2.303236116660008,-0.254
2.305233719536556,-0.254
2.307231322413104,-0.256
2.309228925289652,-0.256
2.3112265281662,-0.257
2.3132241310427486,-0.257
2.3152217339192966,-0.255
2.3172193367958447,-0.255
2.3192169396723927,-0.256
2.321214542548941,-0.255
2.3232121454254893,-0.256
2.3252097483020373,-0.258
2.3272073511785853,-0.258
2.3292049540551334,-0.261
2.331202556931682,-0.258
2.33320015980823,-0.258
2.335197762684778,-0.259
2.337195365561326,-0.26
2.3391929684378745,-0.261
2.3411905713144225,-0.259
2.3431881741909706,-0.26
2.3451857770675186,-0.258
2.3471833799440667,-0.258
2.349180982820615,-0.258
2.351178585697163,-0.258
2.3531761885737112,-0.262
2.3551737914502593,-0.265
2.357171394326808,-0.263
2.359168997203356,-0.262
2.361166600079904,-0.264
2.363164202956452,-0.264
2.365161805833,-0.264
2.3671594087095484,-0.265
2.3691570115860965,-0.267
2.3711546144626445,-0.263
2.3731522173391926,-0.261
2.375149820215741,-0.265
2.377147423092289,-0.264
2.379145025968837,-0.265
2.381142628845385,-0.267
2.3831402317219332,-0.265
2.3851378345984817,-0.266
2.3871354374750298,-0.267
2.389133040351578,-0.266
2.391130643228126,-0.267
2.3931282461046743,-0.269
2.3951258489812224,-0.269
2.3971234518577704,-0.265
2.3991210547343185,-0.265
2.4011186576108665,-0.268
2.403116260487415,-0.271
2.405113863363963,-0.271
2.407111466240511,-0.268
2.409109069117059,-0.268
2.4111066719936076,-0.269
2.4131042748701557,-0.269
2.4151018777467037,-0.269
2.4170994806232518,-0.267
2.4190970834998,-0.268
2.4210946863763483,-0.266
2.4230922892528963,-0.264
2.4250898921294444,-0.267
2.4270874950059924,-0.267
2.429085097882541,-0.267
2.431082700759089,-0.265
2.433080303635637,-0.267
2.435077906512185,-0.27
2.437075509388733,-0.269
2.4390731122652816,-0.269
2.4410707151418296,-0.269
2.4430683180183776,-0.27
2.4450659208949257,-0.271
2.447063523771474,-0.273
2.4490611266480222,-0.271
2.4510587295245703,-0.271
2.4530563324011183,-0.272
2.4550539352776664,-0.271
2.457051538154215,-0.276
2.459049141030763,-0.273
2.461046743907311,-0.271
2.463044346783859,-0.27
2.4650419496604075,-0.27
2.4670395525369555,-0.271
2.4690371554135035,-0.272
2.4710347582900516,-0.269
2.4730323611665996,-0.267
2.475029964043148,-0.27
2.477027566919696,-0.27
2.479025169796244,-0.271
2.4810227726727923,-0.271
2.4830203755493407,-0.273
2.485017978425889,-0.274
2.487015581302437,-0.273
2.489013184178985,-0.272
2.491010787055533,-0.271
2.4930083899320814,-0.272
2.4950059928086294,-0.272
2.4970035956851775,-0.273
2.4990011985617255,-0.274
2.500998801438274,-0.273
2.502996404314822,-0.272
2.50499400719137,-0.27
2.506991610067918,-0.27
2.508989212944466,-0.27
2.5109868158210147,-0.272
2.5129844186975627,-0.27
2.5149820215741108,-0.271
2.516979624450659,-0.272
2.5189772273272073,-0.272
2.5209748302037553,-0.275
2.5229724330803034,-0.276
2.5249700359568514,-0.278
2.5269676388333995,-0.277
2.528965241709948,-0.276
2.530962844586496,-0.276
2.532960447463044,-0.277
2.534958050339592,-0.277
2.5369556532161406,-0.276
2.5389532560926886,-0.278
2.5409508589692367,-0.279
2.5429484618457847,-0.277
2.5449460647223328,-0.275
2.5469436675988812,-0.277
2.5489412704754293,-0.278
2.5509388733519773,-0.28
2.5529364762285254,-0.282
2.554934079105074,-0.282
2.556931681981622,-0.282
2.55892928485817,-0.281
2.560926887734718,-0.281
2.562924490611266,-0.281
2.5649220934878145,-0.281
2.5669196963643626,-0.279
2.5689172992409106,-0.281
2.5709149021174587,-0.282
2.572912504994007,-0.281
2.574910107870555,-0.281
2.5769077107471032,-0.281
2.5789053136236513,-0.282
2.5809029165001993,-0.281
2.582900519376748,-0.278
2.584898122253296,-0.276
2.586895725129844,-0.276
2.588893328006392,-0.279
2.5908909308829404,-0.28
2.5928885337594885,-0.278
2.5948861366360365,-0.278
2.5968837395125846,-0.278
2.5988813423891326,-0.277
2.600878945265681,-0.279
2.602876548142229,-0.281
2.604874151018777,-0.281
2.606871753895325,-0.282
2.6088693567718737,-0.284
2.6108669596484217,-0.285
2.61286456252497,-0.288
2.614862165401518,-0.286
2.616859768278066,-0.285
2.6188573711546144,-0.288
2.6208549740311624,-0.289
2.6228525769077105,-0.288
2.6248501797842585,-0.284
2.626847782660807,-0.285
2.628845385537355,-0.286
2.630842988413903,-0.286
2.632840591290451,-0.287
2.634838194166999,-0.288
2.6368357970435476,-0.289
2.6388333999200957,-0.29
2.6408310027966437,-0.29
2.6428286056731918,-0.29
2.6448262085497403,-0.291
2.6468238114262883,-0.292
2.6488214143028364,-0.293
2.6508190171793844,-0.295
2.6528166200559324,-0.296
2.654814222932481,-0.297
2.656811825809029,-0.299
2.658809428685577,-0.298
2.660807031562125,-0.295
2.662804634438673,-0.292
2.6648022373152216,-0.289
2.6667998401917696,-0.29
2.6687974430683177,-0.293
2.6707950459448657,-0.293
2.672792648821414,-0.295
2.6747902516979623,-0.296
2.6767878545745103,-0.295
2.6787854574510583,-0.296
2.6807830603276064,-0.297
2.682780663204155,-0.298
2.684778266080703,-0.297
2.686775868957251,-0.297
2.688773471833799,-0.3
2.6907710747103475,-0.3
2.6927686775868955,-0.298
2.6947662804634436,-0.297
2.6967638833399916,-0.297
2.6987614862165397,-0.296
2.700759089093088,-0.298
2.702756691969636,-0.299
2.7047542948461842,-0.297
2.7067518977227323,-0.297
2.7087495005992808,-0.298
2.710747103475829,-0.297
2.712744706352377,-0.298
2.714742309228925,-0.303
2.716739912105473,-0.304
2.7187375149820214,-0.304
2.7207351178585695,-0.306
2.7227327207351175,-0.306
2.7247303236116656,-0.307
2.726727926488214,-0.306
2.728725529364762,-0.305
2.73072313224131,-0.305
2.732720735117858,-0.304
2.7347183379944062,-0.306
2.7367159408709547,-0.307
2.7387135437475028,-0.307
2.740711146624051,-0.306
2.742708749500599,-0.303
2.7447063523771473,-0.305
2.7467039552536954,-0.306
2.7487015581302434,-0.306
2.7506991610067915,-0.309
2.7526967638833395,-0.307
2.754694366759888,-0.306
2.756691969636436,-0.307
2.758689572512984,-0.306
2.760687175389532,-0.309
2.7626847782660806,-0.311
2.7646823811426287,-0.312
2.7666799840191767,-0.31
2.7686775868957247,-0.308
2.770675189772273,-0.311
2.7726727926488213,-0.31
2.7746703955253693,-0.312
2.7766679984019174,-0.311
2.7786656012784654,-0.311
2.780663204155014,-0.311
2.782660807031562,-0.31
2.78465840990811,-0.31
2.786656012784658,-0.31
2.788653615661206,-0.31
2.7906512185377546,-0.31
2.7926488214143026,-0.314
2.7946464242908506,-0.313
2.7966440271673987,-0.311
2.798641630043947,-0.312
2.800639232920495,-0.314
2.8026368357970433,-0.315
2.8046344386735913,-0.316
2.8066320415501393,-0.316
2.808629644426688,-0.315
2.810627247303236,-0.314
2.812624850179784,-0.317
2.814622453056332,-0.314
2.8166200559328805,-0.311
2.8186176588094285,-0.314
2.8206152616859765,-0.314
2.8226128645625246,-0.312
2.8246104674390726,-0.313
2.826608070315621,-0.314
2.828605673192169,-0.313
2.830603276068717,-0.312
2.8326008789452652,-0.314
2.8345984818218137,-0.316
2.8365960846983618,-0.317
2.83859368757491,-0.316
2.840591290451458,-0.315
2.842588893328006,-0.317
2.8445864962045544,-0.317
2.8465840990811024,-0.317
2.8485817019576505,-0.315
2.8505793048341985,-0.317
2.852576907710747,-0.318
2.854574510587295,-0.316
2.856572113463843,-0.318
2.858569716340391,-0.319
2.860567319216939,-0.32
2.8625649220934877,-0.317
2.8645625249700357,-0.315
2.8665601278465838,-0.314
2.868557730723132,-0.314
2.8705553335996803,-0.316
2.8725529364762283,-0.316
2.8745505393527764,-0.318
2.8765481422293244,-0.316
2.8785457451058725,-0.315
2.880543347982421,-0.317
2.882540950858969,-0.32
2.884538553735517,-0.321
2.886536156612065,-0.321
2.8885337594886136,-0.321
2.8905313623651616,-0.319
2.8925289652417097,-0.317
2.8945265681182577,-0.319
2.8965241709948057,-0.319
2.8985217738713542,-0.32
2.9005193767479023,-0.322
2.9025169796244503,-0.319
2.9045145825009984,-0.318
2.906512185377547,-0.319
2.908509788254095,-0.318
2.910507391130643,-0.317
2.912504994007191,-0.318
2.914502596883739,-0.319
2.9165001997602875,-0.318
2.9184978026368356,-0.317
2.9204954055133836,-0.317
2.9224930083899316,-0.32
2.92449061126648,-0.32
2.926488214143028,-0.322
2.928485817019576,-0.323
2.9304834198961243,-0.322
2.9324810227726723,-0.324
2.934478625649221,-0.324
2.936476228525769,-0.324
2.938473831402317,-0.321
2.940471434278865,-0.322
2.9424690371554134,-0.322
2.9444666400319615,-0.32
2.9464642429085095,-0.321
2.9484618457850575,-0.322
2.9504594486616056,-0.324
2.952457051538154,-0.326
2.954454654414702,-0.324
2.95645225729125,-0.324
2.958449860167798,-0.323
2.9604474630443467,-0.322
2.9624450659208947,-0.324
2.964442668797443,-0.326
2.966440271673991,-0.325
2.968437874550539,-0.325
2.9704354774270874,-0.326
2.9724330803036354,-0.326
2.9744306831801834,-0.325
2.9764282860567315,-0.323
2.97842588893328,-0.324
2.980423491809828,-0.325
2.982421094686376,-0.325
2.984418697562924,-0.324
2.986416300439472,-0.322
2.9884139033160206,-0.324
2.9904115061925687,-0.324
2.9924091090691167,-0.324
2.9944067119456648,-0.326
2.9964043148222133,-0.328
2.9984019176987613,-0.327
3.0003995205753093,-0.328
3.0023971234518574,-0.331
3.0043947263284054,-0.331
3.006392329204954,-0.331
3.008389932081502,-0.331
3.01038753495805,-0.331
3.012385137834598,-0.33
3.0143827407111465,-0.326
3.0163803435876946,-0.327
3.0183779464642426,-0.328
3.0203755493407907,-0.327
3.0223731522173387,-0.326
3.024370755093887,-0.326
3.0263683579704352,-0.325
3.0283659608469833,-0.324
3.0303635637235313,-0.323
3.03236116660008,-0.324
3.034358769476628,-0.324
3.036356372353176,-0.319
3.038353975229724,-0.314
3.040351578106272,-0.315
3.0423491809828205,-0.315
3.0443467838593685,-0.314
3.0463443867359166,-0.312
3.0483419896124646,-0.31
3.050339592489013,-0.308
3.052337195365561,-0.305
3.054334798242109,-0.304
3.0563324011186572,-0.304
3.0583300039952053,-0.306
3.0603276068717538,-0.303
3.062325209748302,-0.302
3.06432281262485,-0.301
3.066320415501398,-0.3
3.068318018377946,-0.301
3.0703156212544944,-0.299
3.0723132241310425,-0.3
3.0743108270075905,-0.3
3.0763084298841386,-0.299
3.078306032760687,-0.298
3.080303635637235,-0.297
3.082301238513783,-0.298
3.084298841390331,-0.3
3.086296444266879,-0.298
3.0882940471434277,-0.298
3.0902916500199757,-0.3
3.092289252896524,-0.299
3.094286855773072,-0.298
3.0962844586496203,-0.296
3.0982820615261684,-0.292
3.1002796644027164,-0.288
3.1022772672792644,-0.284
3.1042748701558125,-0.282
3.106272473032361,-0.279
3.108270075908909,-0.279
3.110267678785457,-0.276
3.112265281662005,-0.27
3.1142628845385536,-0.27
3.1162604874151016,-0.269
3.1182580902916497,-0.265
3.1202556931681977,-0.265
3.1222532960447458,-0.265
3.1242508989212943,-0.266
3.1262485017978423,-0.267
3.1282461046743903,-0.265
3.1302437075509384,-0.267
3.132241310427487,-0.267
3.134238913304035,-0.268
3.136236516180583,-0.27
3.138234119057131,-0.271
3.140231721933679,-0.275
3.1422293248102275,-0.274
3.1442269276867756,-0.275
3.1462245305633236,-0.275
3.1482221334398717,-0.276
3.15021973631642,-0.275
3.152217339192968,-0.271
3.1542149420695162,-0.272
3.1562125449460643,-0.27
3.1582101478226123,-0.27
3.160207750699161,-0.271
3.162205353575709,-0.271
3.164202956452257,-0.27
3.166200559328805,-0.267
3.1681981622053534,-0.266
3.1701957650819015,-0.264
3.1721933679584495,-0.265
3.1741909708349976,-0.265
3.1761885737115456,-0.265
3.178186176588094,-0.265
3.180183779464642,-0.262
3.18218138234119,-0.262
3.1841789852177382,-0.26
3.1861765880942867,-0.261
3.1881741909708348,-0.264
3.190171793847383,-0.263
3.192169396723931,-0.261
3.194166999600479,-0.261
3.1961646024770274,-0.261
3.1981622053535754,-0.256
3.2001598082301235,-0.255
3.2021574111066715,-0.26
3.20415501398322,-0.266
3.206152616859768,-0.269
3.208150219736316,-0.271
3.210147822612864,-0.274
3.212145425489412,-0.276
3.2141430283659607,-0.279
3.2161406312425087,-0.283
3.2181382341190568,-0.287
3.220135836995605,-0.291
3.2221334398721533,-0.294
3.2241310427487013,-0.296
3.2261286456252494,-0.297
3.2281262485017974,-0.299
3.2301238513783455,-0.303
3.232121454254894,-0.303
3.234119057131442,-0.302
3.23611666000799,-0.305
3.238114262884538,-0.309
3.2401118657610866,-0.311
3.2421094686376346,-0.317
3.2441070715141826,-0.322
3.2461046743907307,-0.323
3.2481022772672787,-0.325
3.2500998801438272,-0.329
3.2520974830203753,-0.331
3.2540950858969233,-0.334
3.2560926887734714,-0.338
3.25809029165002,-0.338
3.260087894526568,-0.338
3.262085497403116,-0.337
3.264083100279664,-0.338
3.266080703156212,-0.339
3.2680783060327605,-0.342
3.2700759089093085,-0.342
3.2720735117858566,-0.34
3.2740711146624046,-0.34
3.276068717538953,-0.341
3.278066320415501,-0.342
3.280063923292049,-0.343
3.2820615261685973,-0.345
3.2840591290451453,-0.346
3.286056731921694,-0.346
3.288054334798242,-0.345
3.29005193767479,-0.344
3.292049540551338,-0.344
3.2940471434278864,-0.344
3.2960447463044344,-0.344
3.2980423491809825,-0.345
3.3000399520575305,-0.346
3.3020375549340786,-0.344
3.304035157810627,-0.342
3.306032760687175,-0.342
3.308030363563723,-0.341
3.310027966440271,-0.34
3.3120255693168197,-0.34
3.3140231721933677,-0.34
3.3160207750699158,-0.34
3.318018377946464,-0.339
3.320015980823012,-0.344
3.3220135836995603,-0.348
3.3240111865761084,-0.355
3.3260087894526564,-0.358
3.3280063923292045,-0.357
3.330003995205753,-0.363
3.332001598082301,-0.367
3.333999200958849,-0.373
3.335996803835397,-0.379
3.337994406711945,-0.377
3.3399920095884936,-0.378
3.3419896124650417,-0.379
3.3439872153415897,-0.381
3.3459848182181378,-0.386
3.3479824210946862,-0.393
3.3499800239712343,-0.397
3.3519776268477823,-0.386
3.3539752297243304,-0.361
3.3559728326008784,-0.332
3.357970435477427,-0.304
3.359968038353975,-0.275
3.361965641230523,-0.237
3.363963244107071,-0.199
3.3659608469836195,-0.161
3.3679584498601676,-0.12
3.3699560527367156,-0.061
3.3719536556132637,0.028
3.3739512584898117,0.129
3.37594886136636,0.231
3.3779464642429082,0.338
3.3799440671194563,0.464
3.3819416699960043,0.605
3.383939272872553,0.752
3.385936875749101,0.902
3.387934478625649,1.039
3.389932081502197,1.162
3.391929684378745,1.28
3.3939272872552935,1.387
3.3959248901318415,1.484
3.3979224930083896,1.558
3.3999200958849376,1.602
3.401917698761486,1.631
3.403915301638034,1.648
3.405912904514582,1.639
3.40791050739113,1.601
3.4099081102676783,1.557
3.4119057131442267,1.496
3.413903316020775,1.417
3.415900918897323,1.345
3.417898521773871,1.272
3.4198961246504194,1.194
3.4218937275269674,1.125
3.4238913304035155,1.048
3.4258889332800635,0.972
3.4278865361566115,0.891
3.42988413903316,0.814
3.431881741909708,0.739
3.433879344786256,0.671
3.435876947662804,0.631
3.4378745505393526,0.587
3.4398721534159007,0.536
3.4418697562924487,0.479
3.4438673591689968,0.417
3.445864962045545,0.356
3.4478625649220933,0.302
3.4498601677986414,0.249
3.4518577706751894,0.196
3.4538553735517374,0.146
3.455852976428286,0.103
3.457850579304834,0.065
3.459848182181382,0.029
3.46184578505793,-0.001
3.463843387934478,-0.034
3.4658409908110266,-0.06
3.4678385936875746,-0.093
3.4698361965641227,-0.122
3.4718337994406707,-0.139
3.473831402317219,-0.154
3.4758290051937673,-0.162
3.4778266080703153,-0.168
3.4798242109468633,-0.182
3.4818218138234114,-0.202
3.48381941669996,-0.213
3.485817019576508,-0.216
3.487814622453056,-0.221
3.489812225329604,-0.228
3.491809828206152,-0.232
3.4938074310827005,-0.236
3.4958050339592486,-0.241
3.4978026368357966,-0.246
3.4998002397123447,-0.252
3.501797842588893,-0.257
3.503795445465441,-0.262
3.5057930483419892,-0.264
3.5077906512185373,-0.267
3.5097882540950853,-0.271
3.511785856971634,-0.277
3.513783459848182,-0.279
3.51578106272473,-0.28
3.517778665601278,-0.283
3.5197762684778264,-0.284
3.5217738713543745,-0.287
3.5237714742309225,-0.289
3.5257690771074706,-0.292
3.5277666799840186,-0.294
3.529764282860567,-0.296
3.531761885737115,-0.296
3.533759488613663,-0.297
3.5357570914902112,-0.3
3.5377546943667597,-0.3
3.5397522972433078,-0.299
3.541749900119856,-0.299
3.543747502996404,-0.301
3.545745105872952,-0.303
3.5477427087495004,-0.305
3.5497403116260484,-0.304
3.5517379145025965,-0.306
3.5537355173791445,-0.307
3.555733120255693,-0.307
3.557730723132241,-0.309
3.559728326008789,-0.309
3.561725928885337,-0.309
3.563723531761885,-0.311
3.5657211346384337,-0.311
3.5677187375149817,-0.312
3.5697163403915297,-0.314
3.571713943268078,-0.314
3.5737115461446263,-0.315
3.5757091490211743,-0.314
3.5777067518977224,-0.312
3.5797043547742704,-0.312
3.5817019576508184,-0.311
3.583699560527367,-0.312
3.585697163403915,-0.313
3.587694766280463,-0.315
3.589692369157011,-0.316
3.5916899720335596,-0.315
3.5936875749101076,-0.315
3.5956851777866556,-0.313
3.5976827806632037,-0.314
3.5996803835397517,-0.315
3.6016779864163,-0.312
3.6036755892928483,-0.314
3.6056731921693963,-0.314
3.6076707950459443,-0.316
3.609668397922493,-0.315
3.611666000799041,-0.315
3.613663603675589,-0.314
3.615661206552137,-0.31
3.617658809428685,-0.311
3.6196564123052335,-0.312
3.6216540151817815,-0.309
3.6236516180583296,-0.308
3.6256492209348776,-0.307
3.627646823811426,-0.305
3.629644426687974,-0.307
3.631642029564522,-0.308
3.6336396324410702,-0.308
3.6356372353176183,-0.307
3.6376348381941668,-0.304
3.639632441070715,-0.303
3.641630043947263,-0.305
3.643627646823811,-0.305
3.6456252497003594,-0.306
3.6476228525769074,-0.306
3.6496204554534555,-0.305
3.6516180583300035,-0.306
3.6536156612065516,-0.305
3.6556132640831,-0.304
3.657610866959648,-0.303
3.659608469836196,-0.303
3.661606072712744,-0.302
3.6636036755892927,-0.298
3.6656012784658407,-0.297
3.6675988813423888,-0.297
3.669596484218937,-0.297
3.671594087095485,-0.297
3.6735916899720333,-0.298
3.6755892928485814,-0.297
3.6775868957251294,-0.297
3.6795844986016775,-0.295
3.681582101478226,-0.296
3.683579704354774,-0.298
3.685577307231322,-0.295
3.68757491010787,-0.291
3.689572512984418,-0.292
3.6915701158609666,-0.293
3.6935677187375147,-0.292
3.6955653216140627,-0.293
3.6975629244906107,-0.293
3.6995605273671592,-0.29
3.7015581302437073,-0.288
3.7035557331202553,-0.286
3.7055533359968034,-0.286
3.7075509388733514,-0.287
3.7095485417499,-0.285
3.711546144626448,-0.284
3.713543747502996,-0.284
3.715541350379544,-0.283
3.7175389532560925,-0.28
3.7195365561326406,-0.276
3.7215341590091886,-0.277
3.7235317618857366,-0.278
3.7255293647622847,-0.277
3.727526967638833,-0.278
3.729524570515381,-0.276
3.7315221733919293,-0.275
3.7335197762684773,-0.273
3.735517379145026,-0.272
3.737514982021574,-0.272
3.739512584898122,-0.271
3.74151018777467,-0.27
3.743507790651218,-0.27
3.7455053935277665,-0.269
3.7475029964043145,-0.267
3.7495005992808625,-0.265
3.7514982021574106,-0.265
3.753495805033959,-0.264
3.755493407910507,-0.26
3.757491010787055,-0.257
3.759488613663603,-0.258
3.7614862165401513,-0.259
3.7634838194166997,-0.259
3.765481422293248,-0.254
3.767479025169796,-0.253
3.769476628046344,-0.254
3.7714742309228924,-0.251
3.7734718337994404,-0.248
3.7754694366759884,-0.246
3.7774670395525365,-0.244
3.7794646424290845,-0.241
3.781462245305633,-0.239
3.783459848182181,-0.235
3.785457451058729,-0.233
3.787455053935277,-0.231
3.7894526568118256,-0.227
3.7914502596883737,-0.226
3.7934478625649217,-0.224
3.7954454654414698,-0.221
3.797443068318018,-0.217
3.7994406711945663,-0.214
3.8014382740711143,-0.213
3.8034358769476624,-0.213
3.8054334798242104,-0.211
3.807431082700759,-0.204
3.809428685577307,-0.202
3.811426288453855,-0.199
3.813423891330403,-0.194
3.815421494206951,-0.193
3.8174190970834996,-0.19
3.8194166999600476,-0.186
3.8214143028365957,-0.183
3.8234119057131437,-0.179
3.825409508589692,-0.173
3.8274071114662402,-0.167
3.8294047143427883,-0.164
3.8314023172193363,-0.161
3.8333999200958844,-0.158
3.835397522972433,-0.155
3.837395125848981,-0.152
3.839392728725529,-0.147
3.841390331602077,-0.145
3.8433879344786255,-0.143
3.8453855373551735,-0.139
3.8473831402317216,-0.136
3.8493807431082696,-0.131
3.8513783459848177,-0.126
3.853375948861366,-0.121
3.855373551737914,-0.117
3.8573711546144622,-0.113
3.8593687574910103,-0.107
3.8613663603675588,-0.102
3.863363963244107,-0.096
3.865361566120655,-0.091
3.867359168997203,-0.086
3.869356771873751,-0.079
3.8713543747502994,-0.075
3.8733519776268475,-0.072
3.8753495805033955,-0.066
3.8773471833799436,-0.06
3.879344786256492,-0.054
3.88134238913304,-0.051
3.883339992009588,-0.049
3.885337594886136,-0.046
3.887335197762684,-0.043
3.8893328006392327,-0.04
3.8913304035157807,-0.036
3.893328006392329,-0.03
3.895325609268877,-0.027
3.897323212145425,-0.025
3.8993208150219734,-0.019
3.9013184178985214,-0.015
3.9033160207750695,-0.01
3.9053136236516175,-0.006
3.907311226528166,-0.002
3.909308829404714,0.001
3.911306432281262,0.004
3.91330403515781,0.007
3.915301638034358,0.011
3.9172992409109066,0.013
3.9192968437874547,0.015
3.9212944466640027,0.017
3.9232920495405508,0.018
3.9252896524170993,0.019
3.9272872552936473,0.024
3.9292848581701953,0.029
3.9312824610467434,0.033
3.9332800639232914,0.033
3.93527766679984,0.035
3.937275269676388,0.037
3.939272872552936,0.04
3.941270475429484,0.044
3.9432680783060325,0.048
3.9452656811825806,0.048
3.9472632840591286,0.051
3.9492608869356767,0.051
3.9512584898122247,0.051
3.953256092688773,0.051
3.9552536955653212,0.051
3.9572512984418693,0.051
3.9592489013184173,0.051
3.961246504194966,0.046
3.963244107071514,0.043
3.965241709948062,0.04
3.96723931282461,0.038
3.969236915701158,0.032
3.9712345185777065,0.028
3.9732321214542545,0.025
3.9752297243308026,0.02
3.9772273272073506,0.017
3.979224930083899,0.009
3.981222532960447,0.004
3.983220135836995,0.002
3.9852177387135432,-0.004
3.9872153415900913,-0.013
3.9892129444666398,-0.018
3.991210547343188,-0.024
3.993208150219736,-0.033
3.995205753096284,-0.039
3.9972033559728324,-0.044
3.9992009588493804,-0.051
4.0011985617259285,-0.059
4.0031961646024765,-0.069
4.005193767479025,-0.075
4.007191370355573,-0.081
4.009188973232121,-0.089
4.01118657610867,-0.095
4.013184178985218,-0.103
4.015181781861766,-0.112
4.017179384738314,-0.117
4.019176987614862,-0.124
4.02117459049141,-0.13
4.023172193367958,-0.136
4.025169796244506,-0.14
4.027167399121054,-0.145
4.029165001997603,-0.152
4.031162604874151,-0.157
4.033160207750699,-0.161
4.035157810627247,-0.165
4.037155413503795,-0.169
4.039153016380343,-0.174
4.041150619256891,-0.179
4.043148222133439,-0.182
4.045145825009987,-0.186
4.047143427886536,-0.191
4.049141030763084,-0.194
4.051138633639632,-0.195
4.05313623651618,-0.199
4.055133839392728,-0.205
4.057131442269276,-0.21
4.059129045145824,-0.212
4.061126648022372,-0.212
4.0631242508989205,-0.213
4.065121853775469,-0.216
4.0671194566520175,-0.22
4.0691170595285655,-0.222
4.0711146624051135,-0.225
4.073112265281662,-0.227
4.07510986815821,-0.229
4.077107471034758,-0.232
4.079105073911306,-0.235
4.081102676787854,-0.237
4.083100279664403,-0.238
4.085097882540951,-0.239
4.087095485417499,-0.242
4.089093088294047,-0.245
4.091090691170595,-0.246
4.093088294047143,-0.248
4.095085896923691,-0.248
4.097083499800239,-0.248
4.099081102676787,-0.248
4.101078705553336,-0.246
4.103076308429884,-0.244
4.105073911306432,-0.244
4.10707151418298,-0.246
4.109069117059528,-0.246
4.111066719936076,-0.246
4.113064322812624,-0.248
4.115061925689172,-0.246
4.11705952856572,-0.244
4.119057131442269,-0.244
4.121054734318817,-0.247
4.123052337195365,-0.25
4.125049940071913,-0.247
4.127047542948461,-0.247
4.1290451458250095,-0.248
4.1310427487015575,-0.248
4.133040351578106,-0.249
4.135037954454654,-0.247
4.1370355573312025,-0.25
4.139033160207751,-0.252
4.141030763084299,-0.251
4.143028365960847,-0.25
4.145025968837395,-0.244
4.147023571713943,-0.246
4.149021174590491,-0.248
4.151018777467039,-0.25
4.153016380343587,-0.25
4.155013983220136,-0.249
4.157011586096684,-0.251
4.159009188973232,-0.249
4.16100679184978,-0.25
4.163004394726328,-0.253
4.165001997602876,-0.252
4.166999600479424,-0.252
4.168997203355972,-0.252
4.17099480623252,-0.25
4.172992409109069,-0.25
4.174990011985617,-0.25
4.176987614862165,-0.251
4.178985217738713,-0.253
4.180982820615261,-0.252
4.182980423491809,-0.251
4.184978026368357,-0.253
4.186975629244905,-0.254
4.1889732321214534,-0.254
4.190970834998002,-0.256
4.19296843787455,-0.256
4.1949660407510985,-0.256
4.1969636436276465,-0.255
4.1989612465041946,-0.257
4.200958849380743,-0.26
4.202956452257291,-0.259
4.204954055133839,-0.259
4.206951658010387,-0.258
4.208949260886936,-0.261
4.210946863763484,-0.262
4.212944466640032,-0.262
4.21494206951658,-0.262
4.216939672393128,-0.258
4.218937275269676,-0.257
4.220934878146224,-0.255
4.222932481022772,-0.255
4.22493008389932,-0.255
4.226927686775869,-0.254
4.228925289652417,-0.255
4.230922892528965,-0.255
4.232920495405513,-0.256
4.234918098282061,-0.256
4.236915701158609,-0.258
4.238913304035157,-0.256
4.240910906911705,-0.256
4.242908509788253,-0.259
4.244906112664802,-0.26
4.24690371554135,-0.258
4.248901318417898,-0.259
4.250898921294446,-0.26
4.252896524170994,-0.259
4.254894127047542,-0.261
4.2568917299240905,-0.261
4.2588893328006385,-0.262
4.260886935677187,-0.261
4.2628845385537355,-0.261
4.2648821414302835,-0.262
4.266879744306832,-0.261
4.26887734718338,-0.261
4.270874950059928,-0.261
4.272872552936476,-0.263
4.274870155813024,-0.26
4.276867758689572,-0.26
4.27886536156612,-0.26
4.280862964442669,-0.26
4.282860567319217,-0.262
4.284858170195765,-0.262
4.286855773072313,-0.264
4.288853375948861,-0.263
4.290850978825409,-0.263
4.292848581701957,-0.261
4.294846184578505,-0.262
4.296843787455053,-0.263
4.298841390331602,-0.26
4.30083899320815,-0.258
4.302836596084698,-0.258
4.304834198961246,-0.26
4.306831801837794,-0.259
4.308829404714342,-0.26
4.31082700759089,-0.261
4.312824610467438,-0.261
4.314822213343986,-0.262
4.316819816220535,-0.262
4.318817419097083,-0.261
4.320815021973631,-0.26
4.3228126248501795,-0.263
4.3248102277267275,-0.264
4.326807830603276,-0.262
4.328805433479824,-0.263
4.330803036356372,-0.263
4.33280063923292,-0.265
4.334798242109469,-0.266
4.336795844986017,-0.268
4.338793447862565,-0.266
4.340791050739113,-0.263
4.342788653615661,-0.263
4.344786256492209,-0.261
4.346783859368757,-0.262
4.348781462245305,-0.266
4.350779065121853,-0.267
4.352776667998402,-0.267
4.35477427087495,-0.264
4.356771873751498,-0.264
4.358769476628046,-0.263
4.360767079504594,-0.263
4.362764682381142,-0.266
4.36476228525769,-0.268
4.366759888134238,-0.268
4.368757491010786,-0.267
4.370755093887335,-0.268
4.372752696763883,-0.267
4.374750299640431,-0.267
4.376747902516979,-0.267
4.378745505393527,-0.268
4.380743108270075,-0.267
4.3827407111466234,-0.265
4.3847383140231715,-0.266
4.3867359168997195,-0.265
4.3887335197762685,-0.265
4.3907311226528165,-0.268
4.3927287255293646,-0.269
4.394726328405913,-0.27
4.396723931282461,-0.273
4.398721534159009,-0.27
4.400719137035557,-0.272
4.402716739912105,-0.273
4.404714342788653,-0.275
4.406711945665202,-0.277
4.40870954854175,-0.276
4.410707151418298,-0.275
4.412704754294846,-0.277
4.414702357171394,-0.277
4.416699960047942,-0.275
4.41869756292449,-0.277
4.420695165801038,-0.277
4.422692768677586,-0.276
4.424690371554135,-0.277
4.426687974430683,-0.277
4.428685577307231,-0.276
4.430683180183779,-0.278
4.432680783060327,-0.279
4.434678385936875,-0.277
4.436675988813423,-0.281
4.438673591689971,-0.281
4.440671194566519,-0.28
4.442668797443068,-0.281
4.444666400319616,-0.282
4.446664003196164,-0.283
4.448661606072712,-0.282
4.4506592089492605,-0.282
4.4526568118258085,-0.281
4.454654414702357,-0.282
4.456652017578905,-0.284
4.458649620455453,-0.284
4.460647223332002,-0.286
4.46264482620855,-0.287
4.464642429085098,-0.287
4.466640031961646,-0.286
4.468637634838194,-0.286
4.470635237714742,-0.287
4.47263284059129,-0.288
4.474630443467838,-0.286
4.476628046344386,-0.287
4.478625649220935,-0.286
4.480623252097483,-0.288
4.482620854974031,-0.291
4.484618457850579,-0.289
4.486616060727127,-0.29
4.488613663603675,-0.293
4.490611266480223,-0.29
4.492608869356771,-0.289
4.494606472233319,-0.29
4.496604075109868,-0.291
4.498601677986416,-0.29
4.500599280862964,-0.288
4.502596883739512,-0.286
4.50459448661606,-0.287
4.506592089492608,-0.285
4.508589692369156,-0.284
4.5105872952457045,-0.285
4.5125848981222525,-0.283
4.5145825009988005,-0.283
4.5165801038753495,-0.285
4.5185777067518975,-0.285
4.520575309628446,-0.287
4.522572912504994,-0.29
4.524570515381542,-0.289
4.52656811825809,-0.289
4.528565721134638,-0.288
4.530563324011186,-0.288
4.532560926887734,-0.289
4.534558529764283,-0.287
4.536556132640831,-0.289
4.538553735517379,-0.291
4.540551338393927,-0.29
4.542548941270475,-0.286
4.544546544147023,-0.285
4.546544147023571,-0.29
4.548541749900119,-0.29
4.550539352776667,-0.291
4.552536955653216,-0.293
4.554534558529764,-0.292
4.556532161406312,-0.292
4.55852976428286,-0.292
4.560527367159408,-0.293
4.562524970035956,-0.294
4.564522572912504,-0.294
4.566520175789052,-0.296
4.5685177786656,-0.297
4.570515381542149,-0.296
4.572512984418697,-0.294
4.574510587295245,-0.296
4.5765081901717934,-0.298
4.5785057930483415,-0.293
4.5805033959248895,-0.293
4.582500998801438,-0.294
4.584498601677986,-0.293
4.586496204554534,-0.294
4.588493807431083,-0.296
4.590491410307631,-0.297
4.592489013184179,-0.297
4.594486616060727,-0.298
4.596484218937275,-0.3
4.598481821813823,-0.301
4.600479424690371,-0.302
4.602477027566919,-0.304
4.604474630443467,-0.305
4.606472233320016,-0.304
4.608469836196564,-0.304
4.610467439073112,-0.304
4.61246504194966,-0.306
4.614462644826208,-0.309
4.616460247702756,-0.308
4.618457850579304,-0.309
4.620455453455852,-0.309
4.6224530563324,-0.307
4.624450659208949,-0.309
4.626448262085497,-0.309
4.628445864962045,-0.309
4.630443467838593,-0.307
4.632441070715141,-0.307
4.634438673591689,-0.31
4.636436276468237,-0.312
4.6384338793447855,-0.31
4.6404314822213335,-0.309
4.642429085097882,-0.312
4.6444266879744305,-0.311
4.6464242908509785,-0.308
4.648421893727527,-0.305
4.650419496604075,-0.307
4.652417099480623,-0.305
4.654414702357171,-0.305
4.656412305233719,-0.305
4.658409908110267,-0.302
4.660407510986816,-0.302
4.662405113863364,-0.299
4.664402716739912,-0.302
4.66640031961646,-0.302
4.668397922493008,-0.3
4.670395525369556,-0.303
4.672393128246104,-0.303
4.674390731122652,-0.302
4.6763883339992,-0.301
4.678385936875749,-0.303
4.680383539752297,-0.306
4.682381142628845,-0.307
4.684378745505393,-0.306
4.686376348381941,-0.304
4.688373951258489,-0.306
4.690371554135037,-0.307
4.692369157011585,-0.306
4.694366759888133,-0.308
4.696364362764682,-0.309
4.69836196564123,-0.307
4.700359568517778,-0.307
4.702357171394326,-0.305
4.7043547742708745,-0.301
4.7063523771474225,-0.302
4.7083499800239705,-0.302
4.710347582900519,-0.304
4.712345185777067,-0.304
4.714342788653616,-0.304
4.716340391530164,-0.306
4.718337994406712,-0.307
4.72033559728326,-0.309
4.722333200159808,-0.309
4.724330803036356,-0.308
4.726328405912904,-0.307
4.728326008789452,-0.308
4.730323611666,-0.308
4.732321214542549,-0.305
4.734318817419097,-0.304
4.736316420295645,-0.304
4.738314023172193,-0.304
4.740311626048741,-0.303
4.742309228925289,-0.301
4.744306831801837,-0.301
4.746304434678385,-0.302
4.748302037554933,-0.302
4.750299640431482,-0.303
4.75229724330803,-0.304
4.754294846184578,-0.302
4.756292449061126,-0.302
4.758290051937674,-0.3
4.760287654814222,-0.3
4.76228525769077,-0.304
4.764282860567318,-0.304
4.7662804634438665,-0.303
4.768278066320415,-0.303
4.770275669196963,-0.304
4.7722732720735115,-0.305
4.7742708749500595,-0.308
4.776268477826608,-0.309
4.778266080703156,-0.311
4.780263683579704,-0.31
4.782261286456252,-0.31
4.7842588893328,-0.31
4.786256492209349,-0.308
4.788254095085897,-0.31
4.790251697962445,-0.311
4.792249300838993,-0.314
4.794246903715541,-0.311
4.796244506592089,-0.312
4.798242109468637,-0.315
4.800239712345185,-0.312
4.802237315221733,-0.315
4.804234918098282,-0.314
4.80623252097483,-0.311
4.808230123851378,-0.311
4.810227726727926,-0.312
4.812225329604474,-0.312
4.814222932481022,-0.31
4.81622053535757,-0.308
4.818218138234118,-0.31
4.820215741110666,-0.309
4.822213343987215,-0.303
4.824210946863763,-0.303
4.826208549740311,-0.305
4.828206152616859,-0.307
4.830203755493407,-0.308
4.8322013583699555,-0.311
4.8341989612465035,-0.312
4.8361965641230515,-0.312
4.8381941669996,-0.312
4.8401917698761485,-0.311
4.842189372752697,-0.311
4.844186975629245,-0.311
4.846184578505793,-0.31
4.848182181382341,-0.308
4.850179784258889,-0.308
4.852177387135437,-0.308
4.854174990011985,-0.304
4.856172592888533,-0.306
4.858170195765082,-0.305
4.86016779864163,-0.303
4.862165401518178,-0.303
4.864163004394726,-0.3
4.866160607271274,-0.298
4.868158210147822,-0.298
4.87015581302437,-0.294
4.872153415900918,-0.293
4.874151018777466,-0.294
4.876148621654015,-0.293
4.878146224530563,-0.293
4.880143827407111,-0.293
4.882141430283659,-0.292
4.884139033160207,-0.291
4.886136636036755,-0.289
4.888134238913303,-0.289
4.890131841789851,-0.29
4.892129444666399,-0.288
4.894127047542948,-0.289
4.896124650419496,-0.289
4.8981222532960444,-0.29
4.9001198561725925,-0.289
4.9021174590491405,-0.288
4.904115061925689,-0.289
4.906112664802237,-0.289
4.908110267678785,-0.288
4.910107870555333,-0.288
4.912105473431882,-0.288
4.91410307630843,-0.288
4.916100679184978,-0.288
4.918098282061526,-0.288
4.920095884938074,-0.288
4.922093487814622,-0.284
4.92409109069117,-0.283
4.926088693567718,-0.281
4.928086296444266,-0.279
4.930083899320815,-0.278
4.932081502197363,-0.273
4.934079105073911,-0.274
4.936076707950459,-0.271
4.938074310827007,-0.266
4.940071913703555,-0.264
4.942069516580103,-0.258
4.944067119456651,-0.256
4.946064722333199,-0.256
4.948062325209748,-0.254
4.950059928086296,-0.255
4.952057530962844,-0.256
4.954055133839392,-0.258
4.95605273671594,-0.256
4.958050339592488,-0.256
4.9600479424690365,-0.26
4.9620455453455845,-0.263
4.9640431482221326,-0.268
4.9660407510986815,-0.27
4.9680383539752295,-0.27
4.970035956851778,-0.271
4.972033559728326,-0.272
4.974031162604874,-0.27
4.976028765481422,-0.268
4.97802636835797,-0.267
4.980023971234518,-0.265
4.982021574111066,-0.266
4.984019176987615,-0.266
4.986016779864163,-0.266
4.988014382740711,-0.263
4.990011985617259,-0.263
4.992009588493807,-0.263
4.994007191370355,-0.259
4.996004794246903,-0.26
4.998002397123451,-0.26
4.999999999999999,-0.26
5.001997602876548,-0.262
5.003995205753096,-0.26
5.005992808629644,-0.259
5.007990411506192,-0.262
5.00998801438274,-0.261
5.011985617259288,-0.26
5.013983220135836,-0.258
5.015980823012384,-0.254
5.017978425888932,-0.255
5.019976028765481,-0.255
5.021973631642029,-0.254
5.023971234518577,-0.25
5.0259688373951255,-0.253
5.0279664402716735,-0.257
5.0299640431482215,-0.261
5.03196164602477,-0.265
5.033959248901318,-0.268
5.035956851777866,-0.272
5.037954454654415,-0.276
5.039952057530963,-0.282
5.041949660407511,-0.284
5.043947263284059,-0.289
5.045944866160607,-0.293
5.047942469037155,-0.294
5.049940071913703,-0.298
5.051937674790251,-0.301
5.053935277666799,-0.303
5.055932880543348,-0.303
5.057930483419896,-0.303
5.059928086296444,-0.307
5.061925689172992,-0.308
5.06392329204954,-0.307
5.065920894926088,-0.312
5.067918497802636,-0.315
5.069916100679184,-0.315
5.071913703555732,-0.32
5.073911306432281,-0.325
5.075908909308829,-0.33
5.077906512185377,-0.331
5.079904115061925,-0.333
5.081901717938473,-0.339
5.083899320815021,-0.34
5.085896923691569,-0.341
5.0878945265681175,-0.344
5.0898921294446655,-0.346
5.0918897323212144,-0.345
5.0938873351977625,-0.346
5.0958849380743105,-0.348
5.097882540950859,-0.347
5.099880143827407,-0.346
5.101877746703955,-0.344
5.103875349580503,-0.342
5.105872952457051,-0.337
5.107870555333599,-0.337
5.109868158210148,-0.338
5.111865761086696,-0.332
5.113863363963244,-0.334
5.115860966839792,-0.334
5.11785856971634,-0.332
5.119856172592888,-0.334
5.121853775469436,-0.333
5.123851378345984,-0.331
5.125848981222532,-0.328
5.127846584099081,-0.329
5.129844186975629,-0.33
5.131841789852177,-0.328
5.133839392728725,-0.329
5.135836995605273,-0.329
5.137834598481821,-0.33
5.139832201358369,-0.335
5.141829804234917,-0.333
5.143827407111465,-0.335
5.145825009988014,-0.342
5.147822612864562,-0.344
5.14982021574111,-0.35
5.151817818617658,-0.356
5.1538154214942065,-0.361
5.1558130243707545,-0.364
5.1578106272473025,-0.368
5.159808230123851,-0.374
5.161805833000399,-0.376
5.163803435876948,-0.378
5.165801038753496,-0.377
5.167798641630044,-0.377
5.169796244506592,-0.379
5.17179384738314,-0.385
5.173791450259688,-0.394
5.175789053136236,-0.385
5.177786656012784,-0.36
5.179784258889332,-0.33
5.181781861765881,-0.298
5.183779464642429,-0.266
5.185777067518977,-0.23
5.187774670395525,-0.195
5.189772273272073,-0.154
5.191769876148621,-0.112
5.193767479025169,-0.053
5.195765081901717,0.035
5.197762684778265,0.137
5.199760287654814,0.238
5.201757890531362,0.346
5.20375549340791,0.478
5.205753096284458,0.624
5.207750699161006,0.775
5.209748302037554,0.932
5.211745904914102,1.083
5.21374350779065,1.213
5.2157411106671985,1.335
5.217738713543747,1.454
5.2197363164202955,1.548
5.2217339192968435,1.625
5.2237315221733915,1.676
5.22572912504994,1.708
5.227726727926488,1.726
5.229724330803036,1.711
5.231721933679584,1.671
5.233719536556132,1.619
5.235717139432681,1.548
5.237714742309229,1.464
5.239712345185777,1.387
5.241709948062325,1.304
5.243707550938873,1.218
5.245705153815421,1.148
5.247702756691969,1.069
5.249700359568517,0.99
5.251697962445065,0.905
5.253695565321614,0.822
5.255693168198162,0.743
5.25769077107471,0.673
5.259688373951258,0.632
5.261685976827806,0.591
5.263683579704354,0.542
5.265681182580902,0.488
5.26767878545745,0.423
5.269676388333998,0.357
5.271673991210547,0.302
5.273671594087095,0.248
5.275669196963643,0.192
5.277666799840191,0.139
5.279664402716739,0.086
5.2816620055932875,0.043
5.2836596084698355,0.012
5.2856572113463836,-0.018
5.287654814222932,-0.051
5.2896524170994805,-0.078
5.291650019976029,-0.106
5.293647622852577,-0.133
5.295645225729125,-0.15
5.297642828605673,-0.166
5.299640431482221,-0.173
5.301638034358769,-0.176
5.303635637235317,-0.19
5.305633240111865,-0.21
5.307630842988414,-0.221
5.309628445864962,-0.225
5.31162604874151,-0.229
5.313623651618058,-0.231
5.315621254494606,-0.234
5.317618857371154,-0.239
5.319616460247702,-0.241
5.32161406312425,-0.247
5.323611666000798,-0.251
5.325609268877346,-0.254
5.327606871753895,-0.26
5.329604474630443,-0.262
5.331602077506991,-0.266
5.333599680383539,-0.27
5.335597283260087,-0.271
5.337594886136635,-0.276
5.339592489013183,-0.28
5.341590091889731,-0.281
5.3435876947662795,-0.279
5.345585297642828,-0.278
5.3475829005193765,-0.281
5.3495805033959245,-0.285
5.3515781062724725,-0.288
5.353575709149021,-0.29
5.355573312025569,-0.294
5.357570914902117,-0.295
5.359568517778665,-0.299
5.361566120655213,-0.304
5.363563723531762,-0.306
5.36556132640831,-0.308
5.367558929284858,-0.308
5.369556532161406,-0.308
5.371554135037954,-0.31
5.373551737914502,-0.313
5.37554934079105,-0.316
5.377546943667598,-0.316
5.379544546544146,-0.311
5.381542149420695,-0.31
5.383539752297243,-0.315
5.385537355173791,-0.314
5.387534958050339,-0.312
5.389532560926887,-0.312
5.391530163803435,-0.315
5.393527766679983,-0.314
5.395525369556531,-0.315
5.397522972433079,-0.317
5.399520575309628,-0.316
5.401518178186176,-0.316
5.403515781062724,-0.321
5.405513383939272,-0.321
5.40751098681582,-0.322
5.4095085896923685,-0.323
5.4115061925689165,-0.321
5.413503795445465,-0.32
5.415501398322013,-0.32
5.4174990011985615,-0.319
5.41949660407511,-0.314
5.421494206951658,-0.31
5.423491809828206,-0.311
5.425489412704754,-0.315
5.427487015581302,-0.314
5.42948461845785,-0.313
5.431482221334398,-0.317
5.433479824210946,-0.316
5.435477427087495,-0.316
5.437475029964043,-0.315
5.439472632840591,-0.315
5.441470235717139,-0.317
5.443467838593687,-0.315
5.445465441470235,-0.314
5.447463044346783,-0.317
5.449460647223331,-0.317
5.451458250099879,-0.315
5.453455852976428,-0.315
5.455453455852976,-0.319
5.457451058729524,-0.319
5.459448661606072,-0.317
5.46144626448262,-0.317
5.463443867359168,-0.315
5.465441470235716,-0.318
5.467439073112264,-0.32
5.4694366759888124,-0.319
5.471434278865361,-0.316
5.473431881741909,-0.315
5.4754294846184575,-0.314
5.4774270874950055,-0.311
5.4794246903715536,-0.31
5.481422293248102,-0.313
5.48341989612465,-0.315
5.485417499001198,-0.314
5.487415101877746,-0.307
5.489412704754295,-0.307
5.491410307630843,-0.309
5.493407910507391,-0.309
5.495405513383939,-0.307
5.497403116260487,-0.304
5.499400719137035,-0.303
5.501398322013583,-0.3
5.503395924890131,-0.294
5.505393527766679,-0.293
5.507391130643228,-0.297
5.509388733519776,-0.298
5.511386336396324,-0.297
5.513383939272872,-0.297
5.51538154214942,-0.296
5.517379145025968,-0.295
5.519376747902516,-0.296
5.521374350779064,-0.299
5.523371953655612,-0.3
5.525369556532161,-0.299
5.527367159408709,-0.299
5.529364762285257,-0.296
5.531362365161805,-0.296
5.533359968038353,-0.294
5.535357570914901,-0.293
5.5373551737914495,-0.294
5.5393527766679975,-0.29
5.541350379544546,-0.288
5.5433479824210945,-0.29
5.5453455852976425,-0.288
5.547343188174191,-0.284
5.549340791050739,-0.283
5.551338393927287,-0.282
5.553335996803835,-0.279
5.555333599680383,-0.277
5.557331202556931,-0.275
5.559328805433479,-0.273
5.561326408310028,-0.273
5.563324011186576,-0.273
5.565321614063124,-0.272
5.567319216939672,-0.271
5.56931681981622,-0.271
5.571314422692768,-0.268
5.573312025569316,-0.265
5.575309628445864,-0.265
5.577307231322412,-0.262
5.579304834198961,-0.258
5.581302437075509,-0.254
5.583300039952057,-0.252
5.585297642828605,-0.253
5.587295245705153,-0.251
5.589292848581701,-0.247
5.591290451458249,-0.247
5.593288054334797,-0.247
5.595285657211345,-0.245
5.597283260087894,-0.241
5.599280862964442,-0.247
5.60127846584099,-0.247
5.6032760687175385,-0.242
5.6052736715940865,-0.243
5.607271274470635,-0.242
5.609268877347183,-0.238
5.611266480223731,-0.237
5.613264083100279,-0.234
5.615261685976828,-0.232
5.617259288853376,-0.229
5.619256891729924,-0.226
5.621254494606472,-0.222
5.62325209748302,-0.216
5.625249700359568,-0.213
5.627247303236116,-0.209
5.629244906112664,-0.209
5.631242508989212,-0.206
5.633240111865761,-0.202
5.635237714742309,-0.203
5.637235317618857,-0.201
5.639232920495405,-0.199
5.641230523371953,-0.195
5.643228126248501,-0.192
5.645225729125049,-0.187
5.647223332001597,-0.184
5.649220934878145,-0.182
5.651218537754694,-0.181
5.653216140631242,-0.178
5.65521374350779,-0.172
5.657211346384338,-0.17
5.659208949260886,-0.164
5.661206552137434,-0.159
5.663204155013982,-0.155
5.6652017578905305,-0.148
5.6671993607670785,-0.144
5.6691969636436275,-0.143
5.6711945665201755,-0.139
5.6731921693967235,-0.134
5.675189772273272,-0.132
5.67718737514982,-0.127
5.679184978026368,-0.121
5.681182580902916,-0.12
5.683180183779464,-0.12
5.685177786656012,-0.115
5.687175389532561,-0.11
5.689172992409109,-0.104
5.691170595285657,-0.1
5.693168198162205,-0.093
5.695165801038753,-0.086
5.697163403915301,-0.084
5.699161006791849,-0.078
5.701158609668397,-0.071
5.703156212544945,-0.067
5.705153815421494,-0.062
5.707151418298042,-0.06
5.70914902117459,-0.054
5.711146624051138,-0.049
5.713144226927686,-0.048
5.715141829804234,-0.043
5.717139432680782,-0.036
5.71913703555733,-0.035
5.721134638433878,-0.033
5.723132241310427,-0.028
5.725129844186975,-0.023
5.727127447063523,-0.02
5.729125049940071,-0.018
5.7311226528166195,-0.012
5.7331202556931675,-0.005
5.735117858569716,-0.004
5.737115461446264,-0.001
5.739113064322812,0.004
5.741110667199361,0.008
5.743108270075909,0.009
5.745105872952457,0.011
5.747103475829005,0.015
5.749101078705553,0.013
5.751098681582101,0.009
5.753096284458649,0.011
5.755093887335197,0.016
5.757091490211745,0.018
5.759089093088294,0.02
5.761086695964842,0.025
5.76308429884139,0.026
5.765081901717938,0.025
5.767079504594486,0.03
5.769077107471034,0.032
5.771074710347582,0.034
5.77307231322413,0.036
5.775069916100678,0.035
5.777067518977227,0.037
5.779065121853775,0.042
5.781062724730323,0.044
5.783060327606871,0.043
5.785057930483419,0.042
5.787055533359967,0.043
5.789053136236515,0.041
5.7910507391130635,0.035
5.7930483419896115,0.028
5.79504594486616,0.023
5.7970435477427085,0.019
5.7990411506192565,0.013
5.801038753495805,0.004
5.803036356372353,-0.007
5.805033959248901,-0.01
5.807031562125449,-0.015
5.809029165001997,-0.022
5.811026767878545,-0.028
5.813024370755094,-0.035
5.815021973631642,-0.044
5.81701957650819,-0.053
5.819017179384738,-0.061
5.821014782261286,-0.068
5.823012385137834,-0.075
5.825009988014382,-0.084
5.82700759089093,-0.089
5.829005193767478,-0.096
5.831002796644027,-0.102
5.833000399520575,-0.108
5.834998002397123,-0.114
5.836995605273671,-0.119
5.838993208150219,-0.125
5.840990811026767,-0.133
5.842988413903315,-0.141
5.844986016779863,-0.145
5.846983619656411,-0.148
5.84898122253296,-0.152
5.850978825409508,-0.158
5.852976428286056,-0.164
5.854974031162604,-0.171
5.856971634039152,-0.175
5.8589692369157005,-0.178
5.8609668397922485,-0.181
5.862964442668797,-0.186
5.864962045545345,-0.195
5.8669596484218935,-0.2
5.868957251298442,-0.203
5.87095485417499,-0.204
5.872952457051538,-0.206
5.874950059928086,-0.212
5.876947662804634,-0.214
5.878945265681182,-0.222
5.88094286855773,-0.226
5.882940471434278,-0.227
5.884938074310827,-0.234
5.886935677187375,-0.236
5.888933280063923,-0.238
5.890930882940471,-0.241
5.892928485817019,-0.246
5.894926088693567,-0.251
5.896923691570115,-0.253
5.898921294446663,-0.255
5.900918897323211,-0.254
5.90291650019976,-0.254
5.904914103076308,-0.261
5.906911705952856,-0.266
5.908909308829404,-0.269
5.910906911705952,-0.272
5.9129045145825,-0.272
5.914902117459048,-0.273
5.916899720335596,-0.273
5.9188973232121445,-0.273
5.920894926088693,-0.273
5.922892528965241,-0.273
5.9248901318417895,-0.27
5.9268877347183375,-0.269
5.928885337594886,-0.268
5.930882940471434,-0.265
5.932880543347982,-0.268
5.93487814622453,-0.267
5.936875749101078,-0.267
5.938873351977627,-0.272
5.940870954854175,-0.271
5.942868557730723,-0.266
5.944866160607271,-0.266
5.946863763483819,-0.268
5.948861366360367,-0.268
5.950858969236915,-0.271
5.952856572113463,-0.269
5.954854174990011,-0.268
5.95685177786656,-0.27
5.958849380743108,-0.27
5.960846983619656,-0.273
5.962844586496204,-0.276
5.964842189372752,-0.275
5.9668397922493,-0.276
5.968837395125848,-0.276
5.970834998002396,-0.276
5.972832600878944,-0.28
5.974830203755493,-0.282
5.976827806632041,-0.282
5.978825409508589,-0.281
5.980823012385137,-0.278
5.982820615261685,-0.275
5.9848182181382334,-0.274
5.9868158210147815,-0.277
5.9888134238913295,-0.277
5.990811026767878,-0.277
5.9928086296444265,-0.28
5.9948062325209746,-0.28
5.996803835397523,-0.284
5.998801438274071,-0.286
6.000799041150619,-0.287
6.002796644027167,-0.288
6.004794246903715,-0.286
6.006791849780263,-0.285
6.008789452656811,-0.285
6.01078705553336,-0.285
6.012784658409908,-0.282
6.014782261286456,-0.28
6.016779864163004,-0.278
6.018777467039552,-0.279
6.0207750699161,-0.28
6.022772672792648,-0.275
6.024770275669196,-0.277
6.026767878545744,-0.28
6.028765481422293,-0.281
6.030763084298841,-0.281
6.032760687175389,-0.284
6.034758290051937,-0.289
6.036755892928485,-0.29
6.038753495805033,-0.291
6.040751098681581,-0.291
6.042748701558129,-0.292
6.044746304434677,-0.29
6.046743907311226,-0.29
6.048741510187774,-0.291
6.050739113064322,-0.291
6.0527367159408705,-0.289
6.0547343188174185,-0.285
6.056731921693967,-0.283
6.058729524570515,-0.281
6.060727127447063,-0.282
6.062724730323611,-0.281
6.06472233320016,-0.278
6.066719936076708,-0.279
6.068717538953256,-0.277
6.070715141829804,-0.276
6.072712744706352,-0.281
6.0747103475829,-0.283
6.076707950459448,-0.283
6.078705553335996,-0.283
6.080703156212544,-0.285
6.082700759089093,-0.282
6.084698361965641,-0.282
6.086695964842189,-0.285
6.088693567718737,-0.284
6.090691170595285,-0.285
6.092688773471833,-0.288
6.094686376348381,-0.288
6.096683979224929,-0.288
6.098681582101477,-0.289
6.100679184978026,-0.29
6.102676787854574,-0.292
6.104674390731122,-0.294
6.10667199360767,-0.295
6.108669596484218,-0.296
6.110667199360766,-0.295
6.1126648022373145,-0.294
6.1146624051138625,-0.293
6.1166600079904105,-0.294
6.1186576108669595,-0.295
6.1206552137435075,-0.293
6.122652816620056,-0.293
6.124650419496604,-0.293
6.126648022373152,-0.292
6.1286456252497,-0.292
6.130643228126248,-0.292
6.132640831002796,-0.29
6.134638433879344,-0.288
6.136636036755892,-0.287
6.138633639632441,-0.289
6.140631242508989,-0.291
6.142628845385537,-0.292
6.144626448262085,-0.294
6.146624051138633,-0.295
6.148621654015181,-0.296
6.150619256891729,-0.293
6.152616859768277,-0.294
6.154614462644825,-0.296
6.156612065521374,-0.293
6.158609668397922,-0.296
6.16060727127447,-0.3
6.162604874151018,-0.301
6.164602477027566,-0.302
6.166600079904114,-0.302
6.168597682780662,-0.306
6.17059528565721,-0.309
6.172592888533758,-0.309
6.174590491410307,-0.308
6.176588094286855,-0.31
6.1785856971634034,-0.312
6.1805833000399515,-0.312
6.1825809029164995,-0.309
6.184578505793048,-0.306
6.186576108669596,-0.309
6.188573711546144,-0.305
6.190571314422692,-0.306
6.192568917299241,-0.31
6.194566520175789,-0.309
6.196564123052337,-0.314
6.198561725928885,-0.317
6.200559328805433,-0.315
6.202556931681981,-0.316
6.204554534558529,-0.317
6.206552137435077,-0.315
6.208549740311625,-0.317
6.210547343188174,-0.317
6.212544946064722,-0.314
6.21454254894127,-0.313
6.216540151817818,-0.315
6.218537754694366,-0.312
6.220535357570914,-0.309
6.222532960447462,-0.312
6.22453056332401,-0.311
6.226528166200558,-0.31
6.228525769077107,-0.31
6.230523371953655,-0.31
6.232520974830203,-0.311
6.234518577706751,-0.312
6.236516180583299,-0.312
6.238513783459847,-0.311
6.2405113863363955,-0.315
6.2425089892129435,-0.319
6.2445065920894915,-0.319
6.2465041949660405,-0.315
6.2485017978425885,-0.318
6.250499400719137,-0.323
6.252497003595685,-0.318
6.254494606472233,-0.318
6.256492209348781,-0.321
6.258489812225329,-0.321
6.260487415101877,-0.318
6.262485017978425,-0.316
6.264482620854974,-0.316
6.266480223731522,-0.317
6.26847782660807,-0.317
6.270475429484618,-0.314
6.272473032361166,-0.315
6.274470635237714,-0.318
6.276468238114262,-0.318
6.27846584099081,-0.32
6.280463443867358,-0.322
6.282461046743907,-0.323
6.284458649620455,-0.326
6.286456252497003,-0.327
6.288453855373551,-0.326
6.290451458250099,-0.326
6.292449061126647,-0.331
6.294446664003195,-0.338
6.296444266879743,-0.34
6.298441869756291,-0.338
6.30043947263284,-0.334
6.302437075509388,-0.331
6.304434678385936,-0.334
6.3064322812624845,-0.333
6.3084298841390325,-0.333
6.3104274870155805,-0.335
6.312425089892129,-0.336
6.314422692768677,-0.337
6.316420295645225,-0.34
6.318417898521774,-0.343
6.320415501398322,-0.343
6.32241310427487,-0.344
6.324410707151418,-0.34
6.326408310027966,-0.339
6.328405912904514,-0.344
6.330403515781062,-0.345
6.33240111865761,-0.341
6.334398721534158,-0.338
6.336396324410707,-0.338
6.338393927287255,-0.339
6.340391530163803,-0.34
6.342389133040351,-0.339
6.344386735916899,-0.335
6.346384338793447,-0.331
6.348381941669995,-0.328
6.350379544546543,-0.329
6.352377147423091,-0.333
6.35437475029964,-0.333
6.356372353176188,-0.33
6.358369956052736,-0.331
6.360367558929284,-0.334
6.362365161805832,-0.336
6.36436276468238,-0.335
6.366360367558928,-0.336
6.3683579704354765,-0.339
6.3703555733120245,-0.339
6.372353176188573,-0.341
6.3743507790651215,-0.343
6.3763483819416695,-0.341
6.378345984818218,-0.341
6.380343587694766,-0.342
6.382341190571314,-0.343
6.384338793447862,-0.343
6.38633639632441,-0.345
6.388333999200958,-0.343
6.390331602077507,-0.344
6.392329204954055,-0.346
6.394326807830603,-0.345
6.396324410707151,-0.345
6.398322013583699,-0.345
6.400319616460247,-0.346
6.402317219336795,-0.346
6.404314822213343,-0.348
6.406312425089891,-0.35
6.40831002796644,-0.349
6.410307630842988,-0.344
6.412305233719536,-0.347
6.414302836596084,-0.349
6.416300439472632,-0.343
6.41829804234918,-0.345
6.420295645225728,-0.347
6.422293248102276,-0.344
6.424290850978824,-0.344
6.426288453855373,-0.343
6.428286056731921,-0.345
6.430283659608469,-0.346
6.432281262485017,-0.347
6.4342788653615655,-0.35
6.4362764682381135,-0.347
6.4382740711146615,-0.347
6.44027167399121,-0.349
6.442269276867758,-0.352
6.444266879744307,-0.353
6.446264482620855,-0.356
6.448262085497403,-0.359
6.450259688373951,-0.36
6.452257291250499,-0.361
6.454254894127047,-0.358
6.456252497003595,-0.358
6.458250099880143,-0.361
6.460247702756691,-0.36
6.46224530563324,-0.361
6.464242908509788,-0.361
6.466240511386336,-0.361
6.468238114262884,-0.359
6.470235717139432,-0.357
6.47223332001598,-0.355
6.474230922892528,-0.353
6.476228525769076,-0.353
6.478226128645624,-0.354
6.480223731522173,-0.354
6.482221334398721,-0.352
6.484218937275269,-0.348
6.486216540151817,-0.348
6.488214143028365,-0.35
6.490211745904913,-0.349
6.492209348781461,-0.351
6.494206951658009,-0.354
6.4962045545345575,-0.358
6.498202157411106,-0.358
6.5001997602876544,-0.358
6.5021973631642025,-0.357
6.5041949660407505,-0.355
6.506192568917299,-0.357
6.508190171793847,-0.355
6.510187774670395,-0.354
6.512185377546943,-0.357
6.514182980423491,-0.356
6.51618058330004,-0.356
6.518178186176588,-0.36
6.520175789053136,-0.364
6.522173391929684,-0.363
6.524170994806232,-0.362
6.52616859768278,-0.362
6.528166200559328,-0.362
6.530163803435876,-0.362
6.532161406312424,-0.364
6.534159009188973,-0.365
6.536156612065521,-0.363
6.538154214942069,-0.362
6.540151817818617,-0.362
6.542149420695165,-0.362
6.544147023571713,-0.364
6.546144626448261,-0.361
6.548142229324809,-0.358
6.550139832201357,-0.361
6.552137435077906,-0.36
6.554135037954454,-0.357
6.556132640831002,-0.356
6.55813024370755,-0.351
6.560127846584098,-0.349
6.5621254494606465,-0.359
6.5641230523371945,-0.361
6.5661206552137426,-0.361
6.568118258090291,-0.362
6.5701158609668395,-0.362
6.572113463843388,-0.365
6.574111066719936,-0.363
6.576108669596484,-0.359
6.578106272473032,-0.357
6.58010387534958,-0.356
6.582101478226128,-0.354
6.584099081102676,-0.351
6.586096683979224,-0.346
6.588094286855773,-0.346
6.590091889732321,-0.347
6.592089492608869,-0.342
6.594087095485417,-0.339
6.596084698361965,-0.34
6.598082301238513,-0.338
6.600079904115061,-0.339
6.602077506991609,-0.339
6.604075109868157,-0.339
6.606072712744706,-0.341
6.608070315621254,-0.341
6.610067918497802,-0.34
6.61206552137435,-0.339
6.614063124250898,-0.342
6.616060727127446,-0.341
6.618058330003994,-0.342
6.620055932880542,-0.343
6.62205353575709,-0.339
6.624051138633639,-0.341
6.626048741510187,-0.342
6.6280463443867355,-0.343
6.6300439472632835,-0.343
6.6320415501398315,-0.342
6.63403915301638,-0.339
6.636036755892928,-0.333
6.638034358769476,-0.327
6.640031961646024,-0.325
6.642029564522573,-0.323
6.644027167399121,-0.323
6.646024770275669,-0.321
6.648022373152217,-0.315
6.650019976028765,-0.309
6.652017578905313,-0.309
6.654015181781861,-0.314
6.656012784658409,-0.316
6.658010387534957,-0.316
6.660007990411506,-0.316
6.662005593288054,-0.315
6.664003196164602,-0.316
6.66600079904115,-0.321
6.667998401917698,-0.323
6.669996004794246,-0.321
6.671993607670794,-0.322
6.673991210547342,-0.321
6.67598881342389,-0.322
6.677986416300439,-0.322
6.679984019176987,-0.32
6.681981622053535,-0.323
6.683979224930083,-0.323
6.685976827806631,-0.32
6.687974430683179,-0.321
6.6899720335597275,-0.318
6.6919696364362755,-0.317
6.693967239312824,-0.317
6.6959648421893725,-0.315
6.6979624450659205,-0.316
6.699960047942469,-0.314
6.701957650819017,-0.308
6.703955253695565,-0.304
6.705952856572113,-0.305
6.707950459448661,-0.306
6.709948062325209,-0.308
6.711945665201757,-0.311
6.713943268078306,-0.314
6.715940870954854,-0.316
6.717938473831402,-0.317
6.71993607670795,-0.321
6.721933679584498,-0.322
6.723931282461046,-0.32
6.725928885337594,-0.318
6.727926488214142,-0.312
6.72992409109069,-0.307
6.731921693967239,-0.301
6.733919296843787,-0.298
6.735916899720335,-0.3
6.737914502596883,-0.301
6.739912105473431,-0.305
6.741909708349979,-0.306
6.743907311226527,-0.308
6.745904914103075,-0.311
6.747902516979623,-0.312
6.749900119856172,-0.318
6.75189772273272,-0.32
6.753895325609268,-0.32
6.7558929284858165,-0.326
6.7578905313623645,-0.329
6.7598881342389125,-0.328
6.761885737115461,-0.335
6.763883339992009,-0.342
6.765880942868557,-0.345
6.767878545745106,-0.352
6.769876148621654,-0.359
6.771873751498202,-0.361
6.77387135437475,-0.363
6.775868957251298,-0.364
6.777866560127846,-0.368
6.779864163004394,-0.369
6.781861765880942,-0.368
6.78385936875749,-0.373
6.785856971634039,-0.378
6.787854574510587,-0.38
6.789852177387135,-0.385
6.791849780263683,-0.389
6.793847383140231,-0.387
6.795844986016779,-0.387
6.797842588893327,-0.391
6.799840191769875,-0.393
6.801837794646423,-0.397
6.803835397522972,-0.399
6.80583300039952,-0.397
6.807830603276068,-0.396
6.809828206152616,-0.394
6.811825809029164,-0.393
6.813823411905712,-0.395
6.81582101478226,-0.397
6.8178186176588085,-0.395
6.8198162205353565,-0.394
6.8218138234119055,-0.395
6.8238114262884535,-0.394
6.8258090291650015,-0.393
6.82780663204155,-0.396
6.829804234918098,-0.398
6.831801837794646,-0.397
6.833799440671194,-0.397
6.835797043547742,-0.395
6.83779464642429,-0.395
6.839792249300839,-0.397
6.841789852177387,-0.401
6.843787455053935,-0.402
6.845785057930483,-0.399
6.847782660807031,-0.398
6.849780263683579,-0.401
6.851777866560127,-0.403
6.853775469436675,-0.402
6.855773072313223,-0.402
6.857770675189772,-0.401
6.85976827806632,-0.403
6.861765880942868,-0.406
6.863763483819416,-0.406
6.865761086695964,-0.402
6.867758689572512,-0.404
6.86975629244906,-0.416
6.871753895325608,-0.422
6.873751498202156,-0.424
6.875749101078705,-0.427
6.877746703955253,-0.428
6.879744306831801,-0.431
6.881741909708349,-0.437
6.8837395125848975,-0.442
6.8857371154614455,-0.445
6.8877347183379936,-0.453
6.889732321214542,-0.449
6.89172992409109,-0.42
6.893727526967639,-0.382
6.895725129844187,-0.348
6.897722732720735,-0.315
6.899720335597283,-0.276
6.901717938473831,-0.234
6.903715541350379,-0.188
6.905713144226927,-0.144
6.907710747103475,-0.081
6.909708349980023,0.015
6.911705952856572,0.128
6.91370355573312,0.241
6.915701158609668,0.36
6.917698761486216,0.501
6.919696364362764,0.65
6.921693967239312,0.813
6.92369157011586,0.984
6.925689172992408,1.143
6.927686775868956,1.283
6.929684378745505,1.415
6.931681981622053,1.544
6.933679584498601,1.648
6.935677187375149,1.735
6.937674790251697,1.794
6.939672393128245,1.833
6.941669996004793,1.852
6.943667598881341,1.837
6.9456652017578895,1.795
6.947662804634438,1.742
6.9496604075109865,1.673
6.9516580103875345,1.579
6.9536556132640825,1.496
6.955653216140631,1.407
6.957650819017179,1.306
6.959648421893727,1.222
6.961646024770275,1.128
6.963643627646823,1.032
6.965641230523371,0.925
6.96763883339992,0.827
6.969636436276468,0.743
6.971634039153016,0.66
6.973631642029564,0.615
6.975629244906112,0.575
6.97762684778266,0.525
6.979624450659208,0.467
6.981622053535756,0.396
6.983619656412304,0.327
6.985617259288853,0.269
6.987614862165401,0.211
6.989612465041949,0.149
6.991610067918497,0.093
6.993607670795045,0.035
6.995605273671593,-0.011
6.997602876548141,-0.042
6.999600479424689,-0.075
7.001598082301237,-0.11
7.003595685177786,-0.136
7.005593288054334,-0.168
7.007590890930882,-0.193
7.00958849380743,-0.207
7.0115860966839785,-0.222
7.0135836995605265,-0.23
7.015581302437075,-0.234
7.017578905313623,-0.248
7.019576508190171,-0.267
7.02157411106672,-0.274
7.023571713943268,-0.281
7.025569316819816,-0.286
7.027566919696364,-0.281
7.029564522572912,-0.286
7.03156212544946,-0.297
7.033559728326008,-0.297
7.035557331202556,-0.302
7.037554934079104,-0.307
7.039552536955653,-0.31
7.041550139832201,-0.317
7.043547742708749,-0.321
7.045545345585297,-0.32
7.047542948461845,-0.32
7.049540551338393,-0.324
7.051538154214941,-0.323
7.053535757091489,-0.325
7.055533359968037,-0.335
7.057530962844586,-0.343
7.059528565721134,-0.344
7.061526168597682,-0.343
7.06352377147423,-0.343
7.065521374350778,-0.345
7.067518977227326,-0.348
7.069516580103874,-0.351
7.0715141829804224,-0.35
7.0735117858569705,-0.347
7.075509388733519,-0.35
7.0775069916100675,-0.35
7.0795045944866155,-0.348
7.0815021973631636,-0.352
7.083499800239712,-0.354
7.08549740311626,-0.355
7.087495005992808,-0.357
7.089492608869356,-0.356
7.091490211745904,-0.35
7.093487814622453,-0.351
7.095485417499001,-0.354
7.097483020375549,-0.352
7.099480623252097,-0.351
7.101478226128645,-0.351
7.103475829005193,-0.352
7.105473431881741,-0.354
7.107471034758289,-0.353
7.109468637634837,-0.352
7.111466240511386,-0.355
7.113463843387934,-0.356
7.115461446264482,-0.357
7.11745904914103,-0.359
7.119456652017578,-0.36
7.121454254894126,-0.362
7.123451857770674,-0.357
7.125449460647222,-0.357
7.12744706352377,-0.36
7.129444666400319,-0.358
7.131442269276867,-0.359
7.133439872153415,-0.359
7.135437475029963,-0.36
7.137435077906511,-0.359
7.1394326807830595,-0.356
7.1414302836596075,-0.357
7.143427886536156,-0.354
7.145425489412704,-0.354
7.1474230922892525,-0.357
7.149420695165801,-0.356
7.151418298042349,-0.358
7.153415900918897,-0.355
7.155413503795445,-0.352
7.157411106671993,-0.353
7.159408709548541,-0.355
7.161406312425089,-0.358
7.163403915301637,-0.36
7.165401518178186,-0.361
7.167399121054734,-0.36
7.169396723931282,-0.362
7.17139432680783,-0.366
7.173391929684378,-0.365
7.175389532560926,-0.364
7.177387135437474,-0.361
7.179384738314022,-0.361
7.18138234119057,-0.36
7.183379944067119,-0.357
7.185377546943667,-0.357
7.187375149820215,-0.358
7.189372752696763,-0.356
7.191370355573311,-0.352
7.193367958449859,-0.351
7.195365561326407,-0.349
7.197363164202955,-0.346
7.1993607670795035,-0.344
7.201358369956052,-0.344
7.2033559728326,-0.342
7.2053535757091485,-0.341
7.2073511785856965,-0.341
7.209348781462245,-0.341
7.211346384338793,-0.344
7.213343987215341,-0.344
7.215341590091889,-0.343
7.217339192968437,-0.344
7.219336795844986,-0.344
7.221334398721534,-0.343
7.223332001598082,-0.343
7.22532960447463,-0.345
7.227327207351178,-0.344
7.229324810227726,-0.342
7.231322413104274,-0.341
7.233320015980822,-0.34
7.23531761885737,-0.337
7.237315221733919,-0.333
7.239312824610467,-0.331
7.241310427487015,-0.334
7.243308030363563,-0.334
7.245305633240111,-0.33
7.247303236116659,-0.332
7.249300838993207,-0.333
7.251298441869755,-0.329
7.253296044746303,-0.33
7.255293647622852,-0.329
7.2572912504994,-0.326
7.259288853375948,-0.324
7.261286456252496,-0.323
7.263284059129044,-0.323
7.2652816620055924,-0.319
7.2672792648821405,-0.318
7.2692768677586885,-0.318
7.271274470635237,-0.317
7.2732720735117855,-0.314
7.2752696763883336,-0.307
7.277267279264882,-0.308
7.27926488214143,-0.314
7.281262485017978,-0.315
7.283260087894526,-0.313
7.285257690771074,-0.31
7.287255293647622,-0.31
7.28925289652417,-0.308
7.291250499400719,-0.305
7.293248102277267,-0.306
7.295245705153815,-0.308
7.297243308030363,-0.307
7.299240910906911,-0.306
7.301238513783459,-0.305
7.303236116660007,-0.3
7.305233719536555,-0.295
7.307231322413103,-0.291
7.309228925289652,-0.29
7.3112265281662,-0.291
7.313224131042748,-0.287
7.315221733919296,-0.283
7.317219336795844,-0.275
7.319216939672392,-0.277
7.32121454254894,-0.281
7.323212145425488,-0.277
7.325209748302036,-0.271
7.327207351178585,-0.269
7.329204954055133,-0.267
7.331202556931681,-0.262
7.3332001598082295,-0.258
7.3351977626847775,-0.253
7.337195365561326,-0.251
7.339192968437874,-0.248
7.341190571314422,-0.244
7.34318817419097,-0.241
7.345185777067519,-0.24
7.347183379944067,-0.241
7.349180982820615,-0.239
7.351178585697163,-0.236
7.353176188573711,-0.233
7.355173791450259,-0.229
7.357171394326807,-0.229
7.359168997203355,-0.228
7.361166600079903,-0.226
7.363164202956452,-0.221
7.365161805833,-0.216
7.367159408709548,-0.211
7.369157011586096,-0.207
7.371154614462644,-0.205
7.373152217339192,-0.201
7.37514982021574,-0.196
7.377147423092288,-0.192
7.379145025968836,-0.186
7.381142628845385,-0.178
7.383140231721933,-0.171
7.385137834598481,-0.164
7.387135437475029,-0.166
7.389133040351577,-0.165
7.391130643228125,-0.157
7.3931282461046735,-0.152
7.3951258489812215,-0.148
7.3971234518577695,-0.143
7.3991210547343185,-0.141
7.4011186576108665,-0.137
7.403116260487415,-0.131
7.405113863363963,-0.127
7.407111466240511,-0.121
7.409109069117059,-0.115
7.411106671993607,-0.11
7.413104274870155,-0.107
7.415101877746703,-0.103
7.417099480623252,-0.098
7.4190970834998,-0.095
7.421094686376348,-0.089
7.423092289252896,-0.083
7.425089892129444,-0.079
7.427087495005992,-0.076
7.42908509788254,-0.073
7.431082700759088,-0.07
7.433080303635636,-0.067
7.435077906512185,-0.062
7.437075509388733,-0.058
7.439073112265281,-0.057
7.441070715141829,-0.059
7.443068318018377,-0.053
7.445065920894925,-0.044
7.447063523771473,-0.037
7.449061126648021,-0.037
7.451058729524569,-0.036
7.453056332401118,-0.034
7.455053935277666,-0.034
7.457051538154214,-0.03
7.459049141030762,-0.027
7.4610467439073105,-0.024
7.4630443467838585,-0.02
7.465041949660407,-0.015
7.467039552536955,-0.009
7.469037155413503,-0.006
7.471034758290052,-0.003
7.4730323611666,0.001
7.475029964043148,0.002
7.477027566919696,0.004
7.479025169796244,0.007
7.481022772672792,0.009
7.48302037554934,0.011
7.485017978425888,0.011
7.487015581302436,0.013
7.489013184178985,0.014
7.491010787055533,0.011
7.493008389932081,0.007
7.495005992808629,0.005
7.497003595685177,0.001
7.499001198561725,-0.001
7.500998801438273,-0.002
7.502996404314821,-0.008
7.504994007191369,-0.015
7.506991610067918,-0.021
7.508989212944466,-0.026
7.510986815821014,-0.034
7.512984418697562,-0.04
7.51498202157411,-0.045
7.516979624450658,-0.049
7.518977227327206,-0.054
7.5209748302037545,-0.064
7.5229724330803025,-0.071
7.524970035956851,-0.078
7.5269676388333995,-0.083
7.5289652417099475,-0.09
7.530962844586496,-0.097
7.532960447463044,-0.102
7.534958050339592,-0.11
7.53695565321614,-0.115
7.538953256092688,-0.118
7.540950858969236,-0.127
7.542948461845785,-0.136
7.544946064722333,-0.141
7.546943667598881,-0.145
7.548941270475429,-0.151
7.550938873351977,-0.162
7.552936476228525,-0.168
7.554934079105073,-0.172
7.556931681981621,-0.178
7.558929284858169,-0.185
7.560926887734718,-0.193
7.562924490611266,-0.199
7.564922093487814,-0.204
7.566919696364362,-0.21
7.56891729924091,-0.22
7.570914902117458,-0.227
7.572912504994006,-0.232
7.574910107870554,-0.238
7.576907710747102,-0.242
7.578905313623651,-0.246
7.580902916500199,-0.246
7.582900519376747,-0.248
7.584898122253295,-0.256
7.5868957251298434,-0.262
7.5888933280063915,-0.268
7.5908909308829395,-0.271
7.592888533759488,-0.272
7.594886136636036,-0.273
7.5968837395125846,-0.276
7.598881342389133,-0.278
7.600878945265681,-0.278
7.602876548142229,-0.278
7.604874151018777,-0.28
7.606871753895325,-0.286
7.608869356771873,-0.288
7.610866959648421,-0.289
7.612864562524969,-0.291
7.614862165401518,-0.292
7.616859768278066,-0.294
7.618857371154614,-0.294
7.620854974031162,-0.296
7.62285257690771,-0.297
7.624850179784258,-0.297
7.626847782660806,-0.298
7.628845385537354,-0.298
7.630842988413902,-0.299
7.632840591290451,-0.298
7.634838194166999,-0.302
7.636835797043547,-0.304
7.638833399920095,-0.306
7.640831002796643,-0.31
7.642828605673191,-0.315
7.644826208549739,-0.315
7.646823811426287,-0.313
7.6488214143028355,-0.315
7.650819017179384,-0.315
7.652816620055932,-0.317
7.6548142229324805,-0.316
7.6568118258090285,-0.315
7.658809428685577,-0.309
7.660807031562125,-0.306
7.662804634438673,-0.307
7.664802237315221,-0.309
7.666799840191769,-0.311
7.668797443068318,-0.309
7.670795045944866,-0.31
7.672792648821414,-0.311
7.674790251697962,-0.311
7.67678785457451,-0.309
7.678785457451058,-0.308
7.680783060327606,-0.313
7.682780663204154,-0.316
7.684778266080702,-0.316
7.686775868957251,-0.316
7.688773471833799,-0.317
7.690771074710347,-0.317
7.692768677586895,-0.318
7.694766280463443,-0.319
7.696763883339991,-0.32
7.698761486216539,-0.321
7.700759089093087,-0.318
7.702756691969635,-0.315
7.704754294846184,-0.314
7.706751897722732,-0.313
7.70874950059928,-0.315
7.710747103475828,-0.315
7.712744706352376,-0.311
7.7147423092289245,-0.311
7.7167399121054725,-0.315
7.7187375149820205,-0.315
7.720735117858569,-0.315
7.7227327207351175,-0.313
7.724730323611666,-0.317
7.726727926488214,-0.321
7.728725529364762,-0.32
7.73072313224131,-0.322
7.732720735117858,-0.324
7.734718337994406,-0.321
7.736715940870954,-0.32
7.738713543747502,-0.319
7.740711146624051,-0.314
7.742708749500599,-0.309
7.744706352377147,-0.305
7.746703955253695,-0.303
7.748701558130243,-0.305
7.750699161006791,-0.306
7.752696763883339,-0.304
7.754694366759887,-0.303
7.756691969636435,-0.304
7.758689572512984,-0.312
7.760687175389532,-0.31
7.76268477826608,-0.306
7.764682381142628,-0.315
7.766679984019176,-0.32
7.768677586895724,-0.324
7.770675189772272,-0.323
7.77267279264882,-0.323
7.774670395525368,-0.325
7.7766679984019165,-0.325
7.778665601278465,-0.326
7.7806632041550134,-0.322
7.7826608070315615,-0.321
7.7846584099081095,-0.323
7.786656012784658,-0.325
7.788653615661206,-0.327
7.790651218537754,-0.326
7.792648821414302,-0.324
7.79464642429085,-0.324
7.796644027167399,-0.322
7.798641630043947,-0.321
7.800639232920495,-0.324
7.802636835797043,-0.321
7.804634438673591,-0.321
7.806632041550139,-0.323
7.808629644426687,-0.32
7.810627247303235,-0.32
7.812624850179783,-0.32
7.814622453056332,-0.318
7.81662005593288,-0.318
7.818617658809428,-0.321
7.820615261685976,-0.32
7.822612864562524,-0.318
7.824610467439072,-0.318
7.82660807031562,-0.319
7.828605673192168,-0.321
7.830603276068716,-0.321
7.832600878945265,-0.323
7.834598481821813,-0.326
7.836596084698361,-0.323
7.838593687574909,-0.323
7.840591290451457,-0.328
7.8425888933280055,-0.33
7.8445864962045535,-0.327
7.8465840990811015,-0.322
7.84858170195765,-0.327
7.8505793048341985,-0.325
7.852576907710747,-0.321
7.854574510587295,-0.322
7.856572113463843,-0.321
7.858569716340391,-0.324
7.860567319216939,-0.323
7.862564922093487,-0.322
7.864562524970035,-0.321
7.866560127846583,-0.321
7.868557730723132,-0.322
7.87055533359968,-0.324
7.872552936476228,-0.326
7.874550539352776,-0.324
7.876548142229324,-0.326
7.878545745105872,-0.331
7.88054334798242,-0.333
7.882540950858968,-0.333
7.884538553735516,-0.333
7.886536156612065,-0.335
7.888533759488613,-0.336
7.890531362365161,-0.34
7.892528965241709,-0.342
7.894526568118257,-0.339
7.896524170994805,-0.336
7.898521773871353,-0.332
7.900519376747901,-0.329
7.902516979624449,-0.332
7.904514582500998,-0.334
7.906512185377546,-0.334
7.9085097882540945,-0.335
7.9105073911306425,-0.331
7.9125049940071905,-0.329
7.914502596883739,-0.335
7.916500199760287,-0.34
7.918497802636835,-0.34
7.920495405513383,-0.338
7.922493008389932,-0.342
7.92449061126648,-0.341
7.926488214143028,-0.341
7.928485817019576,-0.342
7.930483419896124,-0.339
7.932481022772672,-0.341
7.93447862564922,-0.34
7.936476228525768,-0.342
7.938473831402316,-0.342
7.940471434278865,-0.338
7.942469037155413,-0.337
7.944466640031961,-0.335
7.946464242908509,-0.334
7.948461845785057,-0.336
7.950459448661605,-0.335
7.952457051538153,-0.333
7.954454654414701,-0.337
7.956452257291249,-0.342
7.958449860167798,-0.343
7.960447463044346,-0.345
7.962445065920894,-0.347
7.964442668797442,-0.346
7.96644027167399,-0.346
7.968437874550538,-0.35
7.9704354774270865,-0.349
7.9724330803036345,-0.346
7.9744306831801826,-0.345
7.9764282860567315,-0.349
7.9784258889332795,-0.348
7.980423491809828,-0.341
7.982421094686376,-0.341
7.984418697562924,-0.344
7.986416300439472,-0.344
7.98841390331602,-0.346
7.990411506192568,-0.348
7.992409109069116,-0.347
7.994406711945665,-0.345
7.996404314822213,-0.346
7.998401917698761,-0.349
8.000399520575309,-0.35
8.002397123451857,-0.351
8.004394726328405,-0.352
8.006392329204953,-0.353
8.008389932081501,-0.35
8.01038753495805,-0.349
8.012385137834597,-0.347
8.014382740711145,-0.343
8.016380343587693,-0.347
8.018377946464241,-0.349
8.020375549340791,-0.348
8.02237315221734,-0.347
8.024370755093887,-0.347
8.026368357970435,-0.35
8.028365960846983,-0.353
8.030363563723531,-0.353
8.03236116660008,-0.353
8.034358769476627,-0.353
8.036356372353175,-0.355
8.038353975229724,-0.357
8.040351578106272,-0.363
8.04234918098282,-0.363
8.044346783859368,-0.36
8.046344386735916,-0.358
8.048341989612464,-0.355
8.050339592489012,-0.356
8.05233719536556,-0.357
8.054334798242108,-0.356
8.056332401118658,-0.356
8.058330003995206,-0.353
8.060327606871754,-0.351
8.062325209748302,-0.352
8.06432281262485,-0.351
8.066320415501398,-0.353
8.068318018377946,-0.353
8.070315621254494,-0.354
8.072313224131042,-0.359
8.07431082700759,-0.361
8.076308429884138,-0.364
8.078306032760686,-0.368
8.080303635637234,-0.372
8.082301238513782,-0.373
8.08429884139033,-0.371
8.086296444266878,-0.371
8.088294047143426,-0.374
8.090291650019974,-0.375
8.092289252896524,-0.374
8.094286855773072,-0.373
8.09628445864962,-0.374
8.098282061526168,-0.371
8.100279664402716,-0.369
8.102277267279264,-0.369
8.104274870155812,-0.365
8.10627247303236,-0.363
8.108270075908909,-0.363
8.110267678785457,-0.362
8.112265281662005,-0.363
8.114262884538553,-0.364
8.1162604874151,-0.361
8.118258090291649,-0.364
8.120255693168197,-0.369
8.122253296044745,-0.367
8.124250898921293,-0.366
8.126248501797841,-0.367
8.12824610467439,-0.366
8.130243707550939,-0.362
8.132241310427487,-0.36
8.134238913304035,-0.36
8.136236516180583,-0.358
8.138234119057131,-0.358
8.140231721933679,-0.356
8.142229324810227,-0.356
8.144226927686775,-0.359
8.146224530563323,-0.359
8.148222133439871,-0.361
8.15021973631642,-0.364
8.152217339192967,-0.363
8.154214942069515,-0.363
8.156212544946063,-0.365
8.158210147822611,-0.366
8.16020775069916,-0.371
8.162205353575708,-0.374
8.164202956452257,-0.371
8.166200559328805,-0.374
8.168198162205353,-0.374
8.170195765081901,-0.373
8.17219336795845,-0.373
8.174190970834998,-0.374
8.176188573711546,-0.374
8.178186176588094,-0.371
8.180183779464642,-0.37
8.18218138234119,-0.372
8.184178985217738,-0.372
8.186176588094286,-0.374
8.188174190970834,-0.374
8.190171793847382,-0.374
8.19216939672393,-0.375
8.194166999600478,-0.372
8.196164602477026,-0.373
8.198162205353574,-0.373
8.200159808230122,-0.376
8.202157411106672,-0.378
8.20415501398322,-0.376
8.206152616859768,-0.377
8.208150219736316,-0.378
8.210147822612864,-0.378
8.212145425489412,-0.376
8.21414302836596,-0.375
8.216140631242508,-0.374
8.218138234119056,-0.376
8.220135836995604,-0.377
8.222133439872152,-0.375
8.2241310427487,-0.378
8.226128645625248,-0.378
8.228126248501797,-0.38
8.230123851378345,-0.383
8.232121454254893,-0.382
8.23411905713144,-0.382
8.236116660007989,-0.384
8.238114262884539,-0.387
8.240111865761087,-0.386
8.242109468637635,-0.383
8.244107071514183,-0.382
8.24610467439073,-0.379
8.248102277267279,-0.374
8.250099880143827,-0.373
8.252097483020375,-0.373
8.254095085896923,-0.373
8.256092688773471,-0.374
8.258090291650019,-0.373
8.260087894526567,-0.373
8.262085497403115,-0.371
8.264083100279663,-0.371
8.266080703156211,-0.373
8.26807830603276,-0.371
8.270075908909307,-0.37
8.272073511785855,-0.368
8.274071114662405,-0.366
8.276068717538953,-0.368
8.278066320415501,-0.368
8.28006392329205,-0.368
8.282061526168597,-0.369
8.284059129045145,-0.369
8.286056731921693,-0.366
8.288054334798241,-0.365
8.29005193767479,-0.361
8.292049540551337,-0.36
8.294047143427886,-0.361
8.296044746304434,-0.36
8.298042349180982,-0.358
8.30003995205753,-0.354
8.302037554934078,-0.352
8.304035157810626,-0.353
8.306032760687174,-0.356
8.308030363563722,-0.356
8.310027966440272,-0.357
8.31202556931682,-0.355
8.314023172193368,-0.353
8.316020775069916,-0.354
8.318018377946464,-0.354
8.320015980823012,-0.352
8.32201358369956,-0.352
8.324011186576108,-0.352
8.326008789452656,-0.351
8.328006392329204,-0.349
8.330003995205752,-0.344
8.3320015980823,-0.343
8.333999200958848,-0.342
8.335996803835396,-0.339
8.337994406711944,-0.336
8.339992009588492,-0.33
8.34198961246504,-0.327
8.343987215341588,-0.325
8.345984818218138,-0.323
8.347982421094686,-0.321
8.349980023971234,-0.32
8.351977626847782,-0.32
8.35397522972433,-0.32
8.355972832600878,-0.319
8.357970435477426,-0.32
8.359968038353975,-0.323
8.361965641230523,-0.324
8.36396324410707,-0.326
8.365960846983619,-0.328
8.367958449860167,-0.33
8.369956052736715,-0.332
8.371953655613263,-0.334
8.37395125848981,-0.339
8.375948861366359,-0.34
8.377946464242907,-0.334
8.379944067119455,-0.333
8.381941669996005,-0.333
8.383939272872553,-0.334
8.3859368757491,-0.334
8.387934478625649,-0.333
8.389932081502197,-0.333
8.391929684378745,-0.333
8.393927287255293,-0.333
8.395924890131841,-0.335
8.397922493008389,-0.33
8.399920095884937,-0.326
8.401917698761485,-0.328
8.403915301638033,-0.328
8.405912904514581,-0.329
8.40791050739113,-0.326
8.409908110267677,-0.324
8.411905713144225,-0.321
8.413903316020773,-0.317
8.415900918897322,-0.315
8.417898521773871,-0.312
8.41989612465042,-0.308
8.421893727526967,-0.305
8.423891330403515,-0.306
8.425888933280063,-0.309
8.427886536156612,-0.312
8.42988413903316,-0.319
8.431881741909708,-0.324
8.433879344786256,-0.326
8.435876947662804,-0.329
8.437874550539352,-0.332
8.4398721534159,-0.337
8.441869756292448,-0.344
8.443867359168996,-0.347
8.445864962045544,-0.349
8.447862564922092,-0.351
8.44986016779864,-0.353
8.451857770675188,-0.358
8.453855373551738,-0.362
8.455852976428286,-0.367
8.457850579304834,-0.368
8.459848182181382,-0.369
8.46184578505793,-0.372
8.463843387934478,-0.374
8.465840990811026,-0.379
8.467838593687574,-0.383
8.469836196564122,-0.384
8.47183379944067,-0.386
8.473831402317218,-0.389
8.475829005193766,-0.391
8.477826608070314,-0.393
8.479824210946862,-0.396
8.48182181382341,-0.398
8.483819416699959,-0.4
8.485817019576507,-0.402
8.487814622453055,-0.404
8.489812225329604,-0.405
8.491809828206152,-0.405
8.4938074310827,-0.404
8.495805033959249,-0.406
8.497802636835797,-0.409
8.499800239712345,-0.408
8.501797842588893,-0.405
8.50379544546544,-0.403
8.505793048341989,-0.402
8.507790651218537,-0.405
8.509788254095085,-0.408
8.511785856971633,-0.41
8.513783459848181,-0.407
8.515781062724729,-0.404
8.517778665601277,-0.405
8.519776268477825,-0.408
8.521773871354373,-0.409
8.523771474230921,-0.406
8.525769077107471,-0.406
8.527766679984019,-0.406
8.529764282860567,-0.405
8.531761885737115,-0.405
8.533759488613663,-0.404
8.535757091490211,-0.402
8.53775469436676,-0.404
8.539752297243307,-0.406
8.541749900119855,-0.404
8.543747502996403,-0.402
8.545745105872951,-0.405
8.5477427087495,-0.406
8.549740311626048,-0.41
8.551737914502596,-0.415
8.553735517379144,-0.416
8.555733120255692,-0.416
8.55773072313224,-0.42
8.559728326008788,-0.429
8.561725928885338,-0.431
8.563723531761886,-0.428
8.565721134638434,-0.425
8.567718737514982,-0.425
8.56971634039153,-0.43
8.571713943268078,-0.435
8.573711546144626,-0.443
8.575709149021174,-0.449
8.577706751897722,-0.44
8.57970435477427,-0.416
8.581701957650818,-0.386
8.583699560527366,-0.356
8.585697163403914,-0.324
8.587694766280462,-0.287
8.58969236915701,-0.246
8.591689972033558,-0.203
8.593687574910106,-0.161
8.595685177786654,-0.096
8.597682780663204,-0.002
8.599680383539752,0.105
8.6016779864163,0.218
8.603675589292848,0.333
8.605673192169396,0.463
8.607670795045944,0.608
8.609668397922492,0.764
8.61166600079904,0.933
8.613663603675588,1.085
8.615661206552137,1.222
8.617658809428685,1.355
8.619656412305233,1.48
8.62165401518178,1.589
8.623651618058329,1.686
8.625649220934877,1.751
8.627646823811425,1.796
8.629644426687973,1.825
8.63164202956452,1.819
8.63363963244107,1.788
8.635637235317619,1.747
8.637634838194167,1.688
8.639632441070715,1.598
8.641630043947263,1.514
8.643627646823811,1.433
8.645625249700359,1.337
8.647622852576907,1.25
8.649620455453455,1.153
8.651618058330003,1.057
8.653615661206551,0.957
8.6556132640831,0.857
8.657610866959647,0.774
8.659608469836195,0.694
8.661606072712743,0.644
8.663603675589291,0.599
8.66560127846584,0.547
8.667598881342387,0.49
8.669596484218937,0.415
8.671594087095485,0.345
8.673591689972033,0.284
8.675589292848581,0.23
8.67758689572513,0.172
8.679584498601677,0.112
8.681582101478226,0.057
8.683579704354774,0.016
8.685577307231322,-0.021
8.68757491010787,-0.058
8.689572512984418,-0.092
8.691570115860966,-0.117
8.693567718737514,-0.144
8.695565321614062,-0.176
8.69756292449061,-0.193
8.699560527367158,-0.206
8.701558130243706,-0.217
8.703555733120254,-0.225
8.705553335996804,-0.233
8.707550938873352,-0.252
8.7095485417499,-0.268
8.711546144626448,-0.273
8.713543747502996,-0.276
8.715541350379544,-0.279
8.717538953256092,-0.282
8.71953655613264,-0.288
8.721534159009188,-0.293
8.723531761885736,-0.297
8.725529364762284,-0.301
8.727526967638832,-0.304
8.72952457051538,-0.308
8.731522173391928,-0.312
8.733519776268476,-0.315
8.735517379145024,-0.318
8.737514982021573,-0.322
8.73951258489812,-0.324
8.74151018777467,-0.322
8.743507790651218,-0.325
8.745505393527766,-0.328
8.747502996404315,-0.33
8.749500599280863,-0.333
8.75149820215741,-0.335
8.753495805033959,-0.337
8.755493407910507,-0.339
8.757491010787055,-0.343
8.759488613663603,-0.345
8.76148621654015,-0.348
8.763483819416699,-0.347
8.765481422293247,-0.347
8.767479025169795,-0.35
8.769476628046343,-0.352
8.771474230922891,-0.353
8.773471833799439,-0.355
8.775469436675987,-0.354
8.777467039552537,-0.356
8.779464642429085,-0.357
8.781462245305633,-0.356
8.783459848182181,-0.357
8.785457451058729,-0.356
8.787455053935277,-0.356
8.789452656811825,-0.357
8.791450259688373,-0.359
8.793447862564921,-0.36
8.79544546544147,-0.361
8.797443068318017,-0.36
8.799440671194565,-0.362
8.801438274071113,-0.362
8.803435876947661,-0.359
8.80543347982421,-0.358
8.807431082700758,-0.359
8.809428685577306,-0.359
8.811426288453854,-0.36
8.813423891330403,-0.362
8.815421494206952,-0.359
8.8174190970835,-0.357
8.819416699960048,-0.355
8.821414302836596,-0.353
8.823411905713144,-0.351
8.825409508589692,-0.351
8.82740711146624,-0.354
8.829404714342788,-0.356
8.831402317219336,-0.356
8.833399920095884,-0.353
8.835397522972432,-0.352
8.83739512584898,-0.353
8.839392728725528,-0.354
8.841390331602076,-0.354
8.843387934478624,-0.354
8.845385537355172,-0.353
8.84738314023172,-0.352
8.84938074310827,-0.352
8.851378345984818,-0.35
8.853375948861366,-0.349
8.855373551737914,-0.35
8.857371154614462,-0.351
8.85936875749101,-0.349
8.861366360367558,-0.348
8.863363963244106,-0.346
8.865361566120654,-0.344
8.867359168997202,-0.346
8.86935677187375,-0.345
8.871354374750299,-0.348
8.873351977626847,-0.348
8.875349580503395,-0.346
8.877347183379943,-0.347
8.87934478625649,-0.35
8.881342389133039,-0.351
8.883339992009587,-0.35
8.885337594886137,-0.353
8.887335197762685,-0.354
8.889332800639233,-0.352
8.89133040351578,-0.349
8.893328006392329,-0.349
8.895325609268877,-0.351
8.897323212145425,-0.347
8.899320815021973,-0.344
8.901318417898521,-0.344
8.903316020775069,-0.343
8.905313623651617,-0.341
8.907311226528165,-0.34
8.909308829404713,-0.338
8.911306432281261,-0.339
8.91330403515781,-0.339
8.915301638034357,-0.337
8.917299240910905,-0.335
8.919296843787453,-0.335
8.921294446664003,-0.333
8.923292049540551,-0.332
8.9252896524171,-0.331
8.927287255293647,-0.332
8.929284858170195,-0.33
8.931282461046743,-0.33
8.933280063923291,-0.333
8.93527766679984,-0.333
8.937275269676388,-0.333
8.939272872552936,-0.329
8.941270475429484,-0.327
8.943268078306032,-0.326
8.94526568118258,-0.326
8.947263284059128,-0.328
8.949260886935676,-0.326
8.951258489812224,-0.324
8.953256092688772,-0.323
8.95525369556532,-0.316
8.95725129844187,-0.314
8.959248901318418,-0.316
8.961246504194966,-0.314
8.963244107071514,-0.312
8.965241709948062,-0.31
8.96723931282461,-0.31
8.969236915701158,-0.308
8.971234518577706,-0.307
8.973232121454254,-0.308
8.975229724330802,-0.307
8.97722732720735,-0.304
8.979224930083898,-0.301
8.981222532960446,-0.298
8.983220135836994,-0.299
8.985217738713542,-0.299
8.98721534159009,-0.296
8.989212944466638,-0.295
8.991210547343186,-0.296
8.993208150219736,-0.295
8.995205753096284,-0.29
8.997203355972832,-0.29
8.99920095884938,-0.29
9.001198561725928,-0.288
9.003196164602477,-0.287
9.005193767479025,-0.284
9.007191370355573,-0.28
9.00918897323212,-0.274
9.011186576108669,-0.272
9.013184178985217,-0.269
9.015181781861765,-0.266
9.017179384738313,-0.262
9.01917698761486,-0.26
9.021174590491409,-0.258
9.023172193367957,-0.254
9.025169796244505,-0.251
9.027167399121053,-0.247
9.029165001997601,-0.245
9.031162604874151,-0.243
9.033160207750699,-0.24
9.035157810627247,-0.238
9.037155413503795,-0.235
9.039153016380343,-0.234
9.041150619256891,-0.232
9.04314822213344,-0.23
9.045145825009987,-0.227
9.047143427886535,-0.224
9.049141030763083,-0.219
9.051138633639631,-0.214
9.05313623651618,-0.212
9.055133839392727,-0.208
9.057131442269275,-0.204
9.059129045145824,-0.199
9.061126648022372,-0.195
9.06312425089892,-0.192
9.065121853775468,-0.19
9.067119456652017,-0.185
9.069117059528566,-0.179
9.071114662405114,-0.177
9.073112265281662,-0.171
9.07510986815821,-0.168
9.077107471034758,-0.164
9.079105073911306,-0.16
9.081102676787854,-0.159
9.083100279664402,-0.152
9.08509788254095,-0.148
9.087095485417498,-0.143
9.089093088294046,-0.138
9.091090691170594,-0.132
9.093088294047142,-0.127
9.09508589692369,-0.125
9.097083499800238,-0.119
9.099081102676786,-0.115
9.101078705553334,-0.112
9.103076308429884,-0.104
9.105073911306432,-0.1
9.10707151418298,-0.096
9.109069117059528,-0.093
9.111066719936076,-0.087
9.113064322812624,-0.079
9.115061925689172,-0.073
9.11705952856572,-0.068
9.119057131442268,-0.064
9.121054734318816,-0.059
9.123052337195364,-0.053
9.125049940071913,-0.05
9.12704754294846,-0.046
9.129045145825009,-0.043
9.131042748701557,-0.037
9.133040351578105,-0.034
9.135037954454653,-0.034
9.1370355573312,-0.032
9.13903316020775,-0.025
9.141030763084299,-0.021
9.143028365960847,-0.021
9.145025968837395,-0.016
9.147023571713943,-0.011
9.14902117459049,-0.006
9.151018777467039,-0.004
9.153016380343587,-0.003
9.155013983220135,0.0
9.157011586096683,0.005
9.159009188973231,0.009
9.161006791849779,0.007
9.163004394726327,0.009
9.165001997602875,0.013
9.166999600479423,0.015
9.168997203355971,0.018
9.17099480623252,0.018
9.172992409109067,0.018
9.174990011985617,0.019
9.176987614862165,0.02
9.178985217738713,0.021
9.180982820615261,0.02
9.18298042349181,0.02
9.184978026368357,0.015
9.186975629244905,0.011
9.188973232121453,0.009
9.190970834998001,0.004
9.19296843787455,0.002
9.194966040751098,-0.005
9.196963643627646,-0.009
9.198961246504194,-0.015
9.200958849380742,-0.021
9.20295645225729,-0.025
9.204954055133838,-0.03
9.206951658010386,-0.035
9.208949260886934,-0.041
9.210946863763484,-0.049
9.212944466640032,-0.056
9.21494206951658,-0.062
9.216939672393128,-0.07
9.218937275269676,-0.079
9.220934878146224,-0.085
9.222932481022772,-0.091
9.22493008389932,-0.099
9.226927686775868,-0.105
9.228925289652416,-0.112
9.230922892528964,-0.118
9.232920495405512,-0.123
9.23491809828206,-0.131
9.236915701158608,-0.141
9.238913304035156,-0.149
9.240910906911704,-0.154
9.242908509788252,-0.16
9.2449061126648,-0.164
9.24690371554135,-0.171
9.248901318417898,-0.177
9.250898921294446,-0.182
9.252896524170994,-0.186
9.254894127047542,-0.193
9.25689172992409,-0.197
9.258889332800639,-0.201
9.260886935677187,-0.204
9.262884538553735,-0.206
9.264882141430283,-0.21
9.26687974430683,-0.213
9.268877347183379,-0.22
9.270874950059927,-0.223
9.272872552936475,-0.225
9.274870155813023,-0.228
9.276867758689571,-0.234
9.278865361566119,-0.24
9.280862964442667,-0.243
9.282860567319217,-0.244
9.284858170195765,-0.247
9.286855773072313,-0.251
9.288853375948861,-0.253
9.290850978825409,-0.257
9.292848581701957,-0.259
9.294846184578505,-0.259
9.296843787455053,-0.259
9.298841390331601,-0.259
9.30083899320815,-0.26
9.302836596084697,-0.26
9.304834198961245,-0.263
9.306831801837793,-0.265
9.308829404714341,-0.268
9.31082700759089,-0.269
9.312824610467437,-0.268
9.314822213343986,-0.27
9.316819816220534,-0.271
9.318817419097083,-0.272
9.320815021973631,-0.275
9.32281262485018,-0.276
9.324810227726728,-0.274
9.326807830603276,-0.275
9.328805433479824,-0.274
9.330803036356372,-0.275
9.33280063923292,-0.277
9.334798242109468,-0.279
9.336795844986016,-0.28
9.338793447862564,-0.278
9.340791050739112,-0.278
9.34278865361566,-0.281
9.344786256492208,-0.279
9.346783859368756,-0.278
9.348781462245304,-0.281
9.350779065121852,-0.282
9.3527766679984,-0.281
9.35477427087495,-0.281
9.356771873751498,-0.28
9.358769476628046,-0.281
9.360767079504594,-0.283
9.362764682381142,-0.282
9.36476228525769,-0.283
9.366759888134238,-0.284
9.368757491010786,-0.283
9.370755093887334,-0.28
9.372752696763882,-0.281
9.37475029964043,-0.28
9.376747902516978,-0.279
9.378745505393526,-0.279
9.380743108270075,-0.277
9.382740711146623,-0.278
9.38473831402317,-0.278
9.386735916899719,-0.277
9.388733519776267,-0.277
9.390731122652817,-0.277
9.392728725529365,-0.275
9.394726328405913,-0.276
9.39672393128246,-0.276
9.398721534159009,-0.275
9.400719137035557,-0.277
9.402716739912105,-0.277
9.404714342788653,-0.275
9.4067119456652,-0.274
9.408709548541749,-0.274
9.410707151418297,-0.275
9.412704754294845,-0.277
9.414702357171393,-0.278
9.416699960047941,-0.278
9.41869756292449,-0.276
9.420695165801037,-0.275
9.422692768677585,-0.275
9.424690371554133,-0.277
9.426687974430683,-0.274
9.428685577307231,-0.273
9.43068318018378,-0.273
9.432680783060327,-0.271
9.434678385936875,-0.274
9.436675988813423,-0.275
9.438673591689971,-0.276
9.44067119456652,-0.276
9.442668797443067,-0.273
9.444666400319615,-0.273
9.446664003196164,-0.274
9.448661606072712,-0.275
9.45065920894926,-0.276
9.452656811825808,-0.276
9.454654414702356,-0.275
9.456652017578904,-0.278
9.458649620455452,-0.278
9.460647223332,-0.278
9.46264482620855,-0.276
9.464642429085098,-0.276
9.466640031961646,-0.279
9.468637634838194,-0.279
9.470635237714742,-0.28
9.47263284059129,-0.281
9.474630443467838,-0.281
9.476628046344386,-0.281
9.478625649220934,-0.283
9.480623252097482,-0.283
9.48262085497403,-0.282
9.484618457850578,-0.283
9.486616060727126,-0.286
9.488613663603674,-0.284
9.490611266480222,-0.281
9.49260886935677,-0.283
9.494606472233318,-0.284
9.496604075109866,-0.284
9.498601677986416,-0.282
9.500599280862964,-0.28
9.502596883739512,-0.282
9.50459448661606,-0.282
9.506592089492608,-0.284
9.508589692369156,-0.286
9.510587295245704,-0.286
9.512584898122252,-0.286
9.5145825009988,-0.287
9.516580103875349,-0.288
9.518577706751897,-0.288
9.520575309628445,-0.288
9.522572912504993,-0.288
9.52457051538154,-0.285
9.526568118258089,-0.286
9.528565721134637,-0.286
9.530563324011185,-0.286
9.532560926887733,-0.287
9.534558529764283,-0.285
9.53655613264083,-0.284
9.538553735517379,-0.283
9.540551338393927,-0.283
9.542548941270475,-0.284
