Time,I
0.0,0.031
0.001997602876548142,0.029
0.003995205753096284,0.03
0.005992808629644426,0.028
0.007990411506192568,0.029
0.00998801438274071,0.033
0.011985617259288851,0.035
0.013983220135836994,0.035
0.015980823012385136,0.034
0.017978425888933277,0.032
0.01997602876548142,0.033
0.021973631642029562,0.035
0.023971234518577703,0.033
0.025968837395125847,0.035
0.027966440271673988,0.036
0.02996404314822213,0.036
0.03196164602477027,0.038
0.03395924890131841,0.039
0.035956851777866554,0.043
0.0379544546544147,0.044
0.03995205753096284,0.042
0.04194966040751098,0.042
0.043947263284059124,0.04
0.045944866160607264,0.038
0.047942469037155405,0.035
0.04994007191370355,0.042
0.051937674790251694,0.042
0.053935277666799834,0.041
0.055932880543347975,0.039
0.057930483419896116,0.036
0.05992808629644426,0.036
0.061925689172992404,0.036
0.06392329204954054,0.037
0.06592089492608869,0.035
0.06791849780263683,0.038
0.06991610067918497,0.038
0.07191370355573311,0.035
0.07391130643228125,0.035
0.0759089093088294,0.035
0.07790651218537754,0.035
0.07990411506192568,0.035
0.08190171793847383,0.038
0.08389932081502197,0.041
0.0858969236915701,0.039
0.08789452656811825,0.04
0.08989212944466639,0.038
0.09188973232121453,0.04
0.09388733519776267,0.042
0.09588493807431081,0.043
0.09788254095085897,0.045
0.0998801438274071,0.045
0.10187774670395525,0.04
0.10387534958050339,0.041
0.10587295245705153,0.048
0.10787055533359967,0.049
0.10986815821014781,0.049
0.11186576108669595,0.046
0.11386336396324409,0.045
0.11586096683979223,0.045
0.11785856971634039,0.046
0.11985617259288853,0.049
0.12185377546943667,0.05
0.12385137834598481,0.051
0.12584898122253294,0.052
0.1278465840990811,0.058
0.12984418697562924,0.057
0.13184178985217737,0.056
0.13383939272872553,0.059
0.13583699560527365,0.06
0.1378345984818218,0.064
0.13983220135836993,0.061
0.1418298042349181,0.059
0.14382740711146622,0.059
0.14582500998801437,0.066
0.1478226128645625,0.07
0.14982021574111065,0.068
0.1518178186176588,0.07
0.15381542149420693,0.068
0.1558130243707551,0.068
0.15781062724730321,0.071
0.15980823012385137,0.073
0.1618058330003995,0.077
0.16380343587694765,0.079
0.16580103875349578,0.075
0.16779864163004393,0.071
0.16979624450659206,0.071
0.1717938473831402,0.074
0.17379145025968837,0.079
0.1757890531362365,0.084
0.17778665601278465,0.083
0.17978425888933278,0.08
0.18178186176588093,0.08
0.18377946464242906,0.084
0.1857770675189772,0.089
0.18777467039552534,0.09
0.1897722732720735,0.092
0.19176987614862162,0.094
0.19376747902516978,0.092
0.19576508190171793,0.092
0.19776268477826606,0.096
0.1997602876548142,0.099
0.20175789053136234,0.096
0.2037554934079105,0.095
0.20575309628445862,0.099
0.20775069916100677,0.101
0.2097483020375549,0.102
0.21174590491410306,0.101
0.2137435077906512,0.102
0.21574111066719934,0.105
0.2177387135437475,0.103
0.21973631642029562,0.103
0.22173391929684377,0.102
0.2237315221733919,0.106
0.22572912504994005,0.113
0.22772672792648818,0.112
0.22972433080303634,0.109
0.23172193367958446,0.112
0.23371953655613262,0.114
0.23571713943268077,0.115
0.2377147423092289,0.116
0.23971234518577705,0.117
0.24170994806232518,0.117
0.24370755093887334,0.112
0.24570515381542146,0.109
0.24770275669196962,0.109
0.24970035956851774,0.112
0.25169796244506587,0.111
0.253695565321614,0.11
0.2556931681981622,0.11
0.25769077107471033,0.107
0.2596883739512585,0.111
0.2616859768278066,0.114
0.26368357970435474,0.114
0.2656811825809029,0.117
0.26767878545745105,0.117
0.26967638833399915,0.115
0.2716739912105473,0.119
0.27367159408709546,0.122
0.2756691969636436,0.117
0.27766679984019177,0.116
0.27966440271673987,0.118
0.281662005593288,0.12
0.2836596084698362,0.121
0.28565721134638433,0.118
0.28765481422293243,0.117
0.2896524170994806,0.117
0.29165001997602874,0.117
0.2936476228525769,0.114
0.295645225729125,0.113
0.29764282860567315,0.113
0.2996404314822213,0.113
0.30163803435876946,0.108
0.3036356372353176,0.106
0.3056332401118657,0.105
0.30763084298841387,0.102
0.309628445864962,0.102
0.3116260487415102,0.102
0.3136236516180583,0.1
0.31562125449460643,0.098
0.3176188573711546,0.097
0.31961646024770274,0.1
0.3216140631242509,0.096
0.323611666000799,0.087
0.32560926887734715,0.08
0.3276068717538953,0.08
0.32960447463044346,0.08
0.33160207750699155,0.077
0.3335996803835397,0.071
0.33559728326008786,0.066
0.337594886136636,0.067
0.3395924890131841,0.064
0.3415900918897323,0.059
0.3435876947662804,0.062
0.3455852976428286,0.062
0.34758290051937674,0.059
0.34958050339592484,0.059
0.351578106272473,0.062
0.35357570914902114,0.06
0.3555733120255693,0.051
0.3575709149021174,0.046
0.35956851777866555,0.039
0.3615661206552137,0.038
0.36356372353176186,0.037
0.36556132640831,0.034
0.3675589292848581,0.032
0.36955653216140627,0.029
0.3715541350379544,0.027
0.3735517379145026,0.025
0.3755493407910507,0.024
0.37754694366759883,0.024
0.379544546544147,0.022
0.38154214942069514,0.022
0.38353975229724324,0.021
0.3855373551737914,0.022
0.38753495805033955,0.025
0.3895325609268877,0.023
0.39153016380343586,0.021
0.39352776667998396,0.022
0.3955253695565321,0.019
0.39752297243308027,0.015
0.3995205753096284,0.013
0.4015181781861765,0.013
0.4035157810627247,0.015
0.40551338393927283,0.009
0.407510986815821,0.005
0.40950858969236914,0.006
0.41150619256891724,0.004
0.4135037954454654,0.004
0.41550139832201355,0.006
0.4174990011985617,0.003
0.4194966040751098,-0.003
0.42149420695165796,-0.006
0.4234918098282061,-0.006
0.42548941270475427,-0.004
0.4274870155813024,-0.009
0.4294846184578505,-0.007
0.4314822213343987,-0.002
0.43347982421094683,-0.006
0.435477427087495,-0.005
0.4374750299640431,-0.004
0.43947263284059124,-0.006
0.4414702357171394,-0.004
0.44346783859368755,-0.004
0.44546544147023565,-0.009
0.4474630443467838,-0.011
0.44946064722333195,-0.009
0.4514582500998801,-0.005
0.45345585297642826,-0.009
0.45545345585297636,-0.012
0.4574510587295245,-0.011
0.4594486616060727,-0.009
0.4614462644826208,-0.009
0.4634438673591689,-0.011
0.4654414702357171,-0.013
0.46743907311226524,-0.011
0.4694366759888134,-0.009
0.47143427886536154,-0.007
0.47343188174190964,-0.011
0.4754294846184578,-0.013
0.47742708749500595,-0.01
0.4794246903715541,-0.006
0.4814222932481022,-0.006
0.48341989612465036,-0.009
0.4854174990011985,-0.014
0.48741510187774667,-0.013
0.48941270475429477,-0.014
0.4914103076308429,-0.017
0.4934079105073911,-0.017
0.49540551338393923,-0.019
0.4974031162604874,-0.022
0.4994007191370355,-0.023
0.5013983220135837,-0.029
0.5033959248901317,-0.029
0.5053935277666799,-0.025
0.507391130643228,-0.021
0.5093887335197762,-0.021
0.5113863363963244,-0.026
0.5133839392728725,-0.028
0.5153815421494207,-0.026
0.5173791450259688,-0.023
0.519376747902517,-0.023
0.521374350779065,-0.028
0.5233719536556132,-0.032
0.5253695565321613,-0.037
0.5273671594087095,-0.038
0.5293647622852576,-0.035
0.5313623651618058,-0.033
0.533359968038354,-0.032
0.5353575709149021,-0.034
0.5373551737914503,-0.034
0.5393527766679983,-0.035
0.5413503795445465,-0.035
0.5433479824210946,-0.034
0.5453455852976428,-0.037
0.5473431881741909,-0.037
0.5493407910507391,-0.035
0.5513383939272872,-0.031
0.5533359968038354,-0.032
0.5553335996803835,-0.033
0.5573312025569316,-0.032
0.5593288054334797,-0.032
0.5613264083100279,-0.028
0.563324011186576,-0.025
0.5653216140631242,-0.028
0.5673192169396724,-0.03
0.5693168198162205,-0.028
0.5713144226927687,-0.03
0.5733120255693167,-0.034
0.5753096284458649,-0.033
0.577307231322413,-0.034
0.5793048341989612,-0.033
0.5813024370755093,-0.03
0.5833000399520575,-0.026
0.5852976428286056,-0.025
0.5872952457051538,-0.025
0.589292848581702,-0.028
0.59129045145825,-0.029
0.5932880543347981,-0.024
0.5952856572113463,-0.021
0.5972832600878945,-0.018
0.5992808629644426,-0.017
0.6012784658409908,-0.019
0.6032760687175389,-0.021
0.6052736715940871,-0.025
0.6072712744706352,-0.027
0.6092688773471833,-0.026
0.6112664802237314,-0.026
0.6132640831002796,-0.023
0.6152616859768277,-0.022
0.6172592888533759,-0.023
0.619256891729924,-0.022
0.6212544946064722,-0.019
0.6232520974830204,-0.017
0.6252497003595685,-0.017
0.6272473032361165,-0.017
0.6292449061126647,-0.017
0.6312425089892129,-0.017
0.633240111865761,-0.02
0.6352377147423092,-0.022
0.6372353176188573,-0.025
0.6392329204954055,-0.025
0.6412305233719536,-0.021
0.6432281262485018,-0.019
0.6452257291250498,-0.018
0.647223332001598,-0.018
0.6492209348781461,-0.02
0.6512185377546943,-0.02
0.6532161406312424,-0.018
0.6552137435077906,-0.018
0.6572113463843388,-0.021
0.6592089492608869,-0.021
0.6612065521374351,-0.022
0.6632041550139831,-0.021
0.6652017578905313,-0.017
0.6671993607670794,-0.015
0.6691969636436276,-0.016
0.6711945665201757,-0.016
0.6731921693967239,-0.018
0.675189772273272,-0.021
0.6771873751498202,-0.019
0.6791849780263682,-0.018
0.6811825809029164,-0.018
0.6831801837794645,-0.017
0.6851777866560127,-0.019
0.6871753895325609,-0.02
0.689172992409109,-0.016
0.6911705952856572,-0.014
0.6931681981622053,-0.018
0.6951658010387535,-0.019
0.6971634039153015,-0.019
0.6991610067918497,-0.019
0.7011586096683978,-0.017
0.703156212544946,-0.017
0.7051538154214941,-0.016
0.7071514182980423,-0.017
0.7091490211745904,-0.022
0.7111466240511386,-0.022
0.7131442269276868,-0.022
0.7151418298042348,-0.021
0.717139432680783,-0.02
0.7191370355573311,-0.019
0.7211346384338793,-0.017
0.7231322413104274,-0.017
0.7251298441869756,-0.02
0.7271274470635237,-0.024
0.7291250499400719,-0.029
0.73112265281662,-0.029
0.7331202556931681,-0.022
0.7351178585697162,-0.018
0.7371154614462644,-0.016
0.7391130643228125,-0.019
0.7411106671993607,-0.022
0.7431082700759088,-0.021
0.745105872952457,-0.017
0.7471034758290052,-0.013
0.7491010787055533,-0.013
0.7510986815821014,-0.016
0.7530962844586495,-0.019
0.7550938873351977,-0.021
0.7570914902117458,-0.019
0.759089093088294,-0.021
0.7610866959648421,-0.018
0.7630842988413903,-0.015
0.7650819017179384,-0.019
0.7670795045944865,-0.015
0.7690771074710346,-0.015
0.7710747103475828,-0.013
0.773072313224131,-0.011
0.7750699161006791,-0.018
0.7770675189772273,-0.022
0.7790651218537754,-0.025
0.7810627247303236,-0.029
0.7830603276068717,-0.024
0.7850579304834198,-0.025
0.7870555333599679,-0.028
0.7890531362365161,-0.022
0.7910507391130642,-0.017
0.7930483419896124,-0.013
0.7950459448661605,-0.024
0.7970435477427087,-0.033
0.7990411506192568,-0.035
0.801038753495805,-0.037
0.803036356372353,-0.033
0.8050339592489012,-0.034
0.8070315621254494,-0.037
0.8090291650019975,-0.038
0.8110267678785457,-0.037
0.8130243707550938,-0.035
0.815021973631642,-0.035
0.8170195765081901,-0.035
0.8190171793847383,-0.035
0.8210147822612863,-0.033
0.8230123851378345,-0.035
0.8250099880143826,-0.035
0.8270075908909308,-0.033
0.8290051937674789,-0.035
0.8310027966440271,-0.035
0.8330003995205753,-0.034
0.8349980023971234,-0.034
0.8369956052736716,-0.033
0.8389932081502196,-0.033
0.8409908110267678,-0.034
0.8429884139033159,-0.035
0.8449860167798641,-0.037
0.8469836196564122,-0.037
0.8489812225329604,-0.039
0.8509788254095085,-0.035
0.8529764282860567,-0.035
0.8549740311626048,-0.038
0.8569716340391529,-0.037
0.858969236915701,-0.042
0.8609668397922492,-0.042
0.8629644426687973,-0.041
0.8649620455453455,-0.043
0.8669596484218937,-0.041
0.8689572512984418,-0.038
0.87095485417499,-0.04
0.872952457051538,-0.039
0.8749500599280862,-0.037
0.8769476628046343,-0.035
0.8789452656811825,-0.033
0.8809428685577306,-0.034
0.8829404714342788,-0.036
0.8849380743108269,-0.037
0.8869356771873751,-0.037
0.8889332800639232,-0.035
0.8909308829404713,-0.034
0.8929284858170194,-0.039
0.8949260886935676,-0.039
0.8969236915701158,-0.035
0.8989212944466639,-0.035
0.9009188973232121,-0.037
0.9029165001997602,-0.041
0.9049141030763084,-0.041
0.9069117059528565,-0.037
0.9089093088294046,-0.037
0.9109069117059527,-0.037
0.9129045145825009,-0.038
0.914902117459049,-0.04
0.9168997203355972,-0.039
0.9188973232121453,-0.041
0.9208949260886935,-0.042
0.9228925289652417,-0.042
0.9248901318417898,-0.044
0.9268877347183379,-0.048
0.928885337594886,-0.045
0.9308829404714342,-0.044
0.9328805433479823,-0.043
0.9348781462245305,-0.045
0.9368757491010786,-0.048
0.9388733519776268,-0.048
0.9408709548541749,-0.048
0.9428685577307231,-0.045
0.9448661606072711,-0.041
0.9468637634838193,-0.041
0.9488613663603674,-0.041
0.9508589692369156,-0.04
0.9528565721134638,-0.041
0.9548541749900119,-0.04
0.9568517778665601,-0.041
0.9588493807431082,-0.042
0.9608469836196564,-0.043
0.9628445864962044,-0.045
0.9648421893727526,-0.048
0.9668397922493007,-0.044
0.9688373951258489,-0.042
0.970834998002397,-0.044
0.9728326008789452,-0.043
0.9748302037554933,-0.042
0.9768278066320415,-0.042
0.9788254095085895,-0.041
0.9808230123851377,-0.043
0.9828206152616858,-0.045
0.984818218138234,-0.049
0.9868158210147822,-0.051
0.9888134238913303,-0.051
0.9908110267678785,-0.047
0.9928086296444266,-0.046
0.9948062325209748,-0.048
0.9968038353975228,-0.044
0.998801438274071,-0.042
1.0007990411506191,-0.04
1.0027966440271674,-0.041
1.0047942469037154,-0.043
1.0067918497802635,-0.044
1.0087894526568117,-0.043
1.0107870555333598,-0.043
1.012784658409908,-0.045
1.014782261286456,-0.044
1.0167798641630044,-0.046
1.0187774670395524,-0.046
1.0207750699161007,-0.046
1.0227726727926487,-0.049
1.0247702756691968,-0.048
1.026767878545745,-0.046
1.028765481422293,-0.044
1.0307630842988413,-0.043
1.0327606871753894,-0.046
1.0347582900519376,-0.044
1.0367558929284857,-0.042
1.038753495805034,-0.041
1.040751098681582,-0.041
1.04274870155813,-0.043
1.0447463044346783,-0.043
1.0467439073112264,-0.048
1.0487415101877746,-0.051
1.0507391130643227,-0.051
1.052736715940871,-0.05
1.054734318817419,-0.049
1.0567319216939672,-0.049
1.0587295245705153,-0.046
1.0607271274470633,-0.044
1.0627247303236116,-0.041
1.0647223332001596,-0.04
1.066719936076708,-0.042
1.068717538953256,-0.044
1.0707151418298042,-0.047
1.0727127447063523,-0.045
1.0747103475829005,-0.045
1.0767079504594486,-0.046
1.0787055533359966,-0.043
1.0807031562125449,-0.046
1.082700759089093,-0.044
1.0846983619656412,-0.046
1.0866959648421892,-0.046
1.0886935677187375,-0.045
1.0906911705952855,-0.052
1.0926887734718338,-0.053
1.0946863763483818,-0.049
1.0966839792249299,-0.045
1.0986815821014781,-0.047
1.1006791849780262,-0.049
1.1026767878545745,-0.048
1.1046743907311225,-0.044
1.1066719936076708,-0.045
1.1086695964842188,-0.048
1.110667199360767,-0.048
1.1126648022373151,-0.051
1.1146624051138632,-0.048
1.1166600079904114,-0.047
1.1186576108669595,-0.047
1.1206552137435077,-0.048
1.1226528166200558,-0.051
1.124650419496604,-0.05
1.126648022373152,-0.05
1.1286456252497001,-0.051
1.1306432281262484,-0.053
1.1326408310027964,-0.054
1.1346384338793447,-0.051
1.1366360367558928,-0.051
1.138633639632441,-0.048
1.140631242508989,-0.048
1.1426288453855373,-0.051
1.1446264482620854,-0.05
1.1466240511386334,-0.048
1.1486216540151817,-0.045
1.1506192568917297,-0.047
1.152616859768278,-0.046
1.154614462644826,-0.046
1.1566120655213743,-0.049
1.1586096683979223,-0.048
1.1606072712744706,-0.046
1.1626048741510187,-0.045
1.1646024770275667,-0.044
1.166600079904115,-0.043
1.168597682780663,-0.045
1.1705952856572113,-0.044
1.1725928885337593,-0.044
1.1745904914103076,-0.044
1.1765880942868556,-0.045
1.178585697163404,-0.048
1.180583300039952,-0.047
1.1825809029165,-0.049
1.1845785057930482,-0.05
1.1865761086695963,-0.049
1.1885737115461446,-0.049
1.1905713144226926,-0.048
1.1925689172992409,-0.045
1.194566520175789,-0.044
1.1965641230523372,-0.047
1.1985617259288852,-0.048
1.2005593288054333,-0.046
1.2025569316819815,-0.044
1.2045545345585296,-0.046
1.2065521374350778,-0.048
1.2085497403116259,-0.049
1.2105473431881741,-0.05
1.2125449460647222,-0.051
1.2145425489412705,-0.051
1.2165401518178185,-0.049
1.2185377546943665,-0.049
1.2205353575709148,-0.05
1.2225329604474628,-0.049
1.2245305633240111,-0.044
1.2265281662005592,-0.045
1.2285257690771074,-0.047
1.2305233719536555,-0.043
1.2325209748302037,-0.046
1.2345185777067518,-0.05
1.2365161805832998,-0.051
1.238513783459848,-0.051
1.2405113863363961,-0.05
1.2425089892129444,-0.051
1.2445065920894924,-0.056
1.2465041949660407,-0.057
1.2485017978425887,-0.054
1.250499400719137,-0.056
1.252497003595685,-0.056
1.254494606472233,-0.053
1.2564922093487814,-0.052
1.2584898122253294,-0.051
1.2604874151018777,-0.047
1.2624850179784257,-0.048
1.264482620854974,-0.048
1.266480223731522,-0.041
1.2684778266080703,-0.037
1.2704754294846183,-0.036
1.2724730323611664,-0.038
1.2744706352377146,-0.042
1.2764682381142627,-0.04
1.278465840990811,-0.039
1.280463443867359,-0.04
1.2824610467439073,-0.043
1.2844586496204553,-0.046
1.2864562524970036,-0.048
1.2884538553735516,-0.046
1.2904514582500997,-0.047
1.292449061126648,-0.048
1.294446664003196,-0.043
1.2964442668797442,-0.043
1.2984418697562923,-0.042
1.3004394726328405,-0.041
1.3024370755093886,-0.039
1.3044346783859369,-0.035
1.306432281262485,-0.032
1.308429884139033,-0.03
1.3104274870155812,-0.028
1.3124250898921292,-0.024
1.3144226927686775,-0.024
1.3164202956452256,-0.022
1.3184178985217738,-0.019
1.3204155013983219,-0.018
1.3224131042748701,-0.016
1.3244107071514182,-0.016
1.3264083100279662,-0.018
1.3284059129045145,-0.021
1.3304035157810625,-0.019
1.3324011186576108,-0.014
1.3343987215341588,-0.009
1.336396324410707,-0.009
1.3383939272872551,-0.004
1.3403915301638032,0.001
1.3423891330403515,-0.001
1.3443867359168995,-0.002
1.3463843387934478,-0.002
1.3483819416699958,-0.002
1.350379544546544,0.004
1.3523771474230921,0.007
1.3543747502996404,0.007
1.3563723531761884,0.01
1.3583699560527365,0.013
1.3603675589292847,0.013
1.3623651618058328,0.013
1.364362764682381,0.011
1.366360367558929,0.006
1.3683579704354774,0.006
1.3703555733120254,0.007
1.3723531761885737,0.007
1.3743507790651217,0.001
1.3763483819416698,-0.005
1.378345984818218,-0.007
1.380343587694766,-0.011
1.3823411905713143,-0.013
1.3843387934478624,-0.013
1.3863363963244106,-0.011
1.3883339992009587,-0.011
1.390331602077507,-0.014
1.392329204954055,-0.015
1.394326807830603,-0.013
1.3963244107071513,-0.015
1.3983220135836993,-0.02
1.4003196164602476,-0.028
1.4023172193367957,-0.034
1.404314822213344,-0.033
1.406312425089892,-0.034
1.4083100279664402,-0.037
1.4103076308429883,-0.038
1.4123052337195363,-0.043
1.4143028365960846,-0.048
1.4163004394726326,-0.05
1.4182980423491809,-0.052
1.420295645225729,-0.057
1.4222932481022772,-0.059
1.4242908509788252,-0.05
1.4262884538553735,-0.049
1.4282860567319215,-0.05
1.4302836596084696,-0.053
1.4322812624850179,-0.059
1.434278865361566,-0.06
1.4362764682381142,-0.063
1.4382740711146622,-0.061
1.4402716739912105,-0.06
1.4422692768677585,-0.06
1.4442668797443068,-0.059
1.4462644826208548,-0.057
1.4482620854974029,-0.058
1.4502596883739511,-0.058
1.4522572912504992,-0.054
1.4542548941270474,-0.056
1.4562524970035955,-0.056
1.4582500998801438,-0.059
1.4602477027566918,-0.061
1.46224530563324,-0.06
1.464242908509788,-0.062
1.4662405113863362,-0.064
1.4682381142628844,-0.065
1.4702357171394325,-0.064
1.4722333200159807,-0.062
1.4742309228925288,-0.064
1.476228525769077,-0.061
1.478226128645625,-0.059
1.4802237315221733,-0.06
1.4822213343987214,-0.063
1.4842189372752694,-0.065
1.4862165401518177,-0.066
1.4882141430283657,-0.065
1.490211745904914,-0.064
1.492209348781462,-0.064
1.4942069516580103,-0.066
1.4962045545345584,-0.068
1.4982021574111066,-0.07
1.5001997602876547,-0.073
1.5021973631642027,-0.071
1.504194966040751,-0.07
1.506192568917299,-0.071
1.5081901717938473,-0.071
1.5101877746703953,-0.069
1.5121853775469436,-0.068
1.5141829804234916,-0.065
1.51618058330004,-0.06
1.518178186176588,-0.054
1.520175789053136,-0.047
1.5221733919296843,-0.048
1.5241709948062323,-0.047
1.5261685976827806,-0.049
1.5281662005593286,-0.055
1.5301638034358769,-0.06
1.532161406312425,-0.064
1.534159009188973,-0.055
1.5361566120655212,-0.043
1.5381542149420693,-0.028
1.5401518178186175,-0.012
1.5421494206951656,0.003
1.5441470235717139,0.023
1.546144626448262,0.045
1.5481422293248102,0.068
1.5501398322013582,0.092
1.5521374350779062,0.125
1.5541350379544545,0.172
1.5561326408310026,0.212
1.5581302437075508,0.234
1.5601278465840989,0.253
1.5621254494606471,0.276
1.5641230523371952,0.301
1.5661206552137434,0.34
1.5681182580902915,0.383
1.5701158609668395,0.412
1.5721134638433878,0.445
1.5741110667199358,0.471
1.576108669596484,0.494
1.5781062724730321,0.519
1.5801038753495804,0.538
1.5821014782261285,0.552
1.5840990811026767,0.554
1.5860966839792248,0.555
1.5880942868557728,0.535
1.590091889732321,0.51
1.5920894926088691,0.485
1.5940870954854174,0.442
1.5960846983619654,0.401
1.5980823012385137,0.358
1.6000799041150617,0.31
1.60207750699161,0.255
1.604075109868158,0.197
1.606072712744706,0.147
1.6080703156212544,0.106
1.6100679184978024,0.064
1.6120655213743507,0.025
1.6140631242508987,-0.008
1.616060727127447,-0.027
1.618058330003995,-0.017
1.6200559328805433,-0.015
1.6220535357570913,-0.022
1.6240511386336394,-0.028
1.6260487415101876,-0.038
1.6280463443867357,-0.038
1.630043947263284,-0.045
1.632041550139832,-0.054
1.6340391530163803,-0.058
1.6360367558929283,-0.06
1.6380343587694766,-0.061
1.6400319616460246,-0.066
1.6420295645225726,-0.069
1.644027167399121,-0.071
1.646024770275669,-0.074
1.6480223731522172,-0.074
1.6500199760287653,-0.075
1.6520175789053135,-0.074
1.6540151817818616,-0.072
1.6560127846584098,-0.075
1.6580103875349579,-0.073
1.660007990411506,-0.075
1.6620055932880542,-0.072
1.6640031961646022,-0.064
1.6660007990411505,-0.062
1.6679984019176985,-0.059
1.6699960047942468,-0.054
1.6719936076707949,-0.05
1.6739912105473431,-0.049
1.6759888134238912,-0.049
1.6779864163004392,-0.047
1.6799840191769875,-0.047
1.6819816220535355,-0.049
1.6839792249300838,-0.051
1.6859768278066318,-0.051
1.68797443068318,-0.05
1.6899720335597281,-0.049
1.6919696364362764,-0.051
1.6939672393128244,-0.052
1.6959648421893725,-0.054
1.6979624450659208,-0.054
1.6999600479424688,-0.053
1.701957650819017,-0.052
1.703955253695565,-0.049
1.7059528565721134,-0.048
1.7079504594486614,-0.05
1.7099480623252097,-0.05
1.7119456652017577,-0.051
1.7139432680783058,-0.053
1.715940870954854,-0.05
1.717938473831402,-0.048
1.7199360767079503,-0.047
1.7219336795844984,-0.047
1.7239312824610467,-0.051
1.7259288853375947,-0.051
1.727926488214143,-0.05
1.729924091090691,-0.051
1.731921693967239,-0.051
1.7339192968437873,-0.052
1.7359168997203354,-0.049
1.7379145025968836,-0.047
1.7399121054734317,-0.045
1.74190970834998,-0.046
1.743907311226528,-0.045
1.745904914103076,-0.043
1.7479025169796243,-0.045
1.7499001198561723,-0.045
1.7518977227327206,-0.047
1.7538953256092686,-0.048
1.755892928485817,-0.045
1.757890531362365,-0.042
1.7598881342389132,-0.041
1.7618857371154613,-0.038
1.7638833399920093,-0.041
1.7658809428685576,-0.045
1.7678785457451056,-0.048
1.7698761486216539,-0.05
1.771873751498202,-0.048
1.7738713543747502,-0.045
1.7758689572512982,-0.043
1.7778665601278465,-0.044
1.7798641630043945,-0.046
1.7818617658809426,-0.047
1.7838593687574908,-0.048
1.785856971634039,-0.044
1.7878545745105872,-0.043
1.7898521773871352,-0.044
1.7918497802636835,-0.043
1.7938473831402315,-0.044
1.7958449860167798,-0.043
1.7978425888933278,-0.043
1.7998401917698759,-0.041
1.8018377946464241,-0.038
1.8038353975229722,-0.041
1.8058330003995204,-0.042
1.8078306032760685,-0.042
1.8098282061526167,-0.043
1.8118258090291648,-0.043
1.813823411905713,-0.048
1.815821014782261,-0.05
1.8178186176588091,-0.05
1.8198162205353574,-0.051
1.8218138234119055,-0.05
1.8238114262884537,-0.049
1.8258090291650018,-0.051
1.82780663204155,-0.051
1.829804234918098,-0.049
1.8318018377946463,-0.046
1.8337994406711944,-0.044
1.8357970435477424,-0.043
1.8377946464242907,-0.041
1.8397922493008387,-0.04
1.841789852177387,-0.037
1.843787455053935,-0.038
1.8457850579304833,-0.044
1.8477826608070314,-0.04
1.8497802636835796,-0.038
1.8517778665601277,-0.041
1.8537754694366757,-0.04
1.855773072313224,-0.044
1.857770675189772,-0.045
1.8597682780663203,-0.043
1.8617658809428683,-0.045
1.8637634838194166,-0.04
1.8657610866959646,-0.04
1.867758689572513,-0.041
1.869756292449061,-0.041
1.871753895325609,-0.04
1.8737514982021573,-0.037
1.8757491010787053,-0.04
1.8777467039552536,-0.039
1.8797443068318016,-0.037
1.8817419097083499,-0.04
1.883739512584898,-0.04
1.8857371154614462,-0.042
1.8877347183379942,-0.041
1.8897323212145423,-0.04
1.8917299240910905,-0.042
1.8937275269676386,-0.043
1.8957251298441868,-0.043
1.8977227327207349,-0.041
1.8997203355972831,-0.038
1.9017179384738312,-0.036
1.9037155413503795,-0.037
1.9057131442269275,-0.036
1.9077107471034755,-0.035
1.9097083499800238,-0.035
1.9117059528565719,-0.033
1.9137035557331201,-0.029
1.9157011586096682,-0.027
1.9176987614862164,-0.03
1.9196963643627645,-0.03
1.9216939672393127,-0.034
1.9236915701158608,-0.037
1.9256891729924088,-0.035
1.927686775868957,-0.031
1.9296843787455051,-0.025
1.9316819816220534,-0.023
1.9336795844986014,-0.018
1.9356771873751497,-0.017
1.9376747902516978,-0.022
1.939672393128246,-0.023
1.941669996004794,-0.019
1.943667598881342,-0.017
1.9456652017578904,-0.018
1.9476628046344384,-0.021
1.9496604075109867,-0.02
1.9516580103875347,-0.02
1.953655613264083,-0.02
1.955653216140631,-0.019
1.957650819017179,-0.025
1.9596484218937273,-0.027
1.9616460247702754,-0.026
1.9636436276468237,-0.025
1.9656412305233717,-0.022
1.96763883339992,-0.019
1.969636436276468,-0.019
1.9716340391530163,-0.022
1.9736316420295643,-0.016
1.9756292449061124,-0.014
1.9776268477826606,-0.015
1.9796244506592087,-0.013
1.981622053535757,-0.013
1.983619656412305,-0.009
1.9856172592888532,-0.006
1.9876148621654013,-0.005
1.9896124650419496,-0.005
1.9916100679184976,-0.003
1.9936076707950456,-0.001
1.995605273671594,0.004
1.997602876548142,0.005
1.9996004794246902,0.003
2.0015980823012383,0.002
2.0035956851777863,-0.001
2.005593288054335,-0.001
2.007590890930883,0.002
2.009588493807431,0.001
2.011586096683979,0.004
2.013583699560527,0.005
2.0155813024370755,0.005
2.0175789053136235,0.004
2.0195765081901715,0.006
2.0215741110667196,0.009
2.023571713943268,0.009
2.025569316819816,0.013
2.027566919696364,0.015
2.029564522572912,0.017
2.0315621254494602,0.021
2.0335597283260087,0.021
2.0355573312025568,0.022
2.037554934079105,0.022
2.039552536955653,0.022
2.0415501398322013,0.024
2.0435477427087494,0.022
2.0455453455852974,0.024
2.0475429484618455,0.025
2.0495405513383935,0.029
2.051538154214942,0.035
2.05353575709149,0.031
2.055533359968038,0.03
2.057530962844586,0.032
2.0595285657211346,0.032
2.0615261685976827,0.033
2.0635237714742307,0.038
2.0655213743507788,0.046
2.067518977227327,0.05
2.0695165801038753,0.051
2.0715141829804233,0.05
2.0735117858569714,0.045
2.0755093887335194,0.048
2.077506991610068,0.054
2.079504594486616,0.059
2.081502197363164,0.06
2.083499800239712,0.057
2.08549740311626,0.054
2.0874950059928086,0.053
2.0894926088693566,0.055
2.0914902117459047,0.057
2.0934878146224527,0.056
2.095485417499001,0.056
2.0974830203755492,0.056
2.0994806232520973,0.053
2.1014782261286453,0.053
2.1034758290051934,0.058
2.105473431881742,0.059
2.10747103475829,0.056
2.109468637634838,0.054
2.111466240511386,0.053
2.1134638433879345,0.055
2.1154614462644825,0.058
2.1174590491410306,0.06
2.1194566520175786,0.062
2.1214542548941266,0.062
2.123451857770675,0.062
2.125449460647223,0.059
2.127447063523771,0.052
2.1294446664003193,0.054
2.1314422692768678,0.058
2.133439872153416,0.058
2.135437475029964,0.057
2.137435077906512,0.053
2.13943268078306,0.048
2.1414302836596084,0.045
2.1434278865361565,0.047
2.1454254894127045,0.05
2.1474230922892525,0.05
2.149420695165801,0.046
2.151418298042349,0.045
2.153415900918897,0.044
2.155413503795445,0.043
2.157411106671993,0.044
2.1594087095485417,0.045
2.1614063124250897,0.045
2.163403915301638,0.042
2.165401518178186,0.041
2.1673991210547343,0.039
2.1693967239312824,0.035
2.1713943268078304,0.032
2.1733919296843784,0.025
2.1753895325609265,0.024
2.177387135437475,0.025
2.179384738314023,0.023
2.181382341190571,0.024
2.183379944067119,0.025
2.1853775469436676,0.021
2.1873751498202156,0.018
2.1893727526967637,0.017
2.1913703555733117,0.015
2.1933679584498598,0.01
2.1953655613264083,0.007
2.1973631642029563,0.005
2.1993607670795043,0.005
2.2013583699560524,0.004
2.203355972832601,-0.002
2.205353575709149,-0.002
2.207351178585697,0.002
2.209348781462245,-0.002
2.211346384338793,-0.011
2.2133439872153415,-0.015
2.2153415900918896,-0.013
2.2173391929684376,-0.014
2.2193367958449857,-0.017
2.221334398721534,-0.018
2.223332001598082,-0.019
2.2253296044746302,-0.019
2.2273272073511783,-0.02
2.2293248102277263,-0.024
2.231322413104275,-0.026
2.233320015980823,-0.026
2.235317618857371,-0.025
2.237315221733919,-0.025
2.2393128246104674,-0.029
2.2413104274870155,-0.032
2.2433080303635635,-0.033
2.2453056332401116,-0.035
2.2473032361166596,-0.036
2.249300838993208,-0.035
2.251298441869756,-0.038
2.253296044746304,-0.042
2.2552936476228522,-0.043
2.2572912504994003,-0.043
2.2592888533759488,-0.044
2.261286456252497,-0.047
2.263284059129045,-0.046
2.265281662005593,-0.043
2.2672792648821414,-0.042
2.2692768677586894,-0.043
2.2712744706352375,-0.043
2.2732720735117855,-0.042
2.2752696763883336,-0.041
2.277267279264882,-0.04
2.27926488214143,-0.04
2.281262485017978,-0.04
2.283260087894526,-0.043
2.2852576907710747,-0.046
2.2872552936476227,-0.046
2.2892528965241707,-0.046
2.291250499400719,-0.044
2.293248102277267,-0.041
2.2952457051538153,-0.037
2.2972433080303634,-0.039
2.2992409109069114,-0.043
2.3012385137834594,-0.043
2.303236116660008,-0.038
2.305233719536556,-0.034
2.307231322413104,-0.033
2.309228925289652,-0.036
2.3112265281662,-0.037
2.3132241310427486,-0.037
2.3152217339192966,-0.042
2.3172193367958447,-0.049
2.3192169396723927,-0.051
2.321214542548941,-0.046
2.3232121454254893,-0.046
2.3252097483020373,-0.046
2.3272073511785853,-0.043
2.3292049540551334,-0.043
2.331202556931682,-0.046
2.33320015980823,-0.043
2.335197762684778,-0.044
2.337195365561326,-0.046
2.3391929684378745,-0.047
2.3411905713144225,-0.049
2.3431881741909706,-0.049
2.3451857770675186,-0.048
2.3471833799440667,-0.048
2.349180982820615,-0.049
2.351178585697163,-0.047
2.3531761885737112,-0.046
2.3551737914502593,-0.044
2.357171394326808,-0.044
2.359168997203356,-0.049
2.361166600079904,-0.05
2.363164202956452,-0.05
2.365161805833,-0.051
2.3671594087095484,-0.052
2.3691570115860965,-0.047
2.3711546144626445,-0.046
2.3731522173391926,-0.049
2.375149820215741,-0.05
2.377147423092289,-0.056
2.379145025968837,-0.056
2.381142628845385,-0.055
2.3831402317219332,-0.058
2.3851378345984817,-0.053
2.3871354374750298,-0.051
2.389133040351578,-0.05
2.391130643228126,-0.05
2.3931282461046743,-0.053
2.3951258489812224,-0.048
2.3971234518577704,-0.045
2.3991210547343185,-0.048
2.4011186576108665,-0.051
2.403116260487415,-0.056
2.405113863363963,-0.057
2.407111466240511,-0.057
2.409109069117059,-0.059
2.4111066719936076,-0.06
2.4131042748701557,-0.057
2.4151018777467037,-0.058
2.4170994806232518,-0.057
2.4190970834998,-0.059
2.4210946863763483,-0.061
2.4230922892528963,-0.058
2.4250898921294444,-0.057
2.4270874950059924,-0.057
2.429085097882541,-0.06
2.431082700759089,-0.06
2.433080303635637,-0.059
2.435077906512185,-0.06
2.437075509388733,-0.059
2.4390731122652816,-0.054
2.4410707151418296,-0.055
2.4430683180183776,-0.06
2.4450659208949257,-0.06
2.447063523771474,-0.06
2.4490611266480222,-0.059
2.4510587295245703,-0.061
2.4530563324011183,-0.061
2.4550539352776664,-0.058
2.457051538154215,-0.056
2.459049141030763,-0.057
2.461046743907311,-0.053
2.463044346783859,-0.049
2.4650419496604075,-0.051
2.4670395525369555,-0.053
2.4690371554135035,-0.053
2.4710347582900516,-0.051
2.4730323611665996,-0.05
2.475029964043148,-0.051
2.477027566919696,-0.051
2.479025169796244,-0.052
2.4810227726727923,-0.054
2.4830203755493407,-0.056
2.485017978425889,-0.054
2.487015581302437,-0.053
2.489013184178985,-0.056
2.491010787055533,-0.056
2.4930083899320814,-0.055
2.4950059928086294,-0.054
2.4970035956851775,-0.052
2.4990011985617255,-0.051
2.500998801438274,-0.053
2.502996404314822,-0.054
2.50499400719137,-0.05
2.506991610067918,-0.052
2.508989212944466,-0.052
2.5109868158210147,-0.049
2.5129844186975627,-0.047
2.5149820215741108,-0.044
2.516979624450659,-0.047
2.5189772273272073,-0.05
2.5209748302037553,-0.048
2.5229724330803034,-0.048
2.5249700359568514,-0.047
2.5269676388333995,-0.047
2.528965241709948,-0.048
2.530962844586496,-0.047
2.532960447463044,-0.046
2.534958050339592,-0.044
2.5369556532161406,-0.051
2.5389532560926886,-0.057
2.5409508589692367,-0.056
2.5429484618457847,-0.055
2.5449460647223328,-0.056
2.5469436675988812,-0.057
2.5489412704754293,-0.053
2.5509388733519773,-0.054
2.5529364762285254,-0.058
2.554934079105074,-0.053
2.556931681981622,-0.054
2.55892928485817,-0.053
2.560926887734718,-0.051
2.562924490611266,-0.051
2.5649220934878145,-0.051
2.5669196963643626,-0.054
2.5689172992409106,-0.057
2.5709149021174587,-0.055
2.572912504994007,-0.054
2.574910107870555,-0.055
2.5769077107471032,-0.058
2.5789053136236513,-0.058
2.5809029165001993,-0.058
2.582900519376748,-0.053
2.584898122253296,-0.054
2.586895725129844,-0.053
2.588893328006392,-0.053
2.5908909308829404,-0.056
2.5928885337594885,-0.05
2.5948861366360365,-0.048
2.5968837395125846,-0.047
2.5988813423891326,-0.045
2.600878945265681,-0.043
2.602876548142229,-0.045
2.604874151018777,-0.047
2.606871753895325,-0.048
2.6088693567718737,-0.052
2.6108669596484217,-0.053
2.61286456252497,-0.055
2.614862165401518,-0.056
2.616859768278066,-0.053
2.6188573711546144,-0.051
2.6208549740311624,-0.051
2.6228525769077105,-0.05
2.6248501797842585,-0.05
2.626847782660807,-0.05
2.628845385537355,-0.047
2.630842988413903,-0.049
2.632840591290451,-0.054
2.634838194166999,-0.053
2.6368357970435476,-0.05
2.6388333999200957,-0.051
2.6408310027966437,-0.053
2.6428286056731918,-0.052
2.6448262085497403,-0.051
2.6468238114262883,-0.048
2.6488214143028364,-0.051
2.6508190171793844,-0.054
2.6528166200559324,-0.054
2.654814222932481,-0.057
2.656811825809029,-0.056
2.658809428685577,-0.054
2.660807031562125,-0.053
2.662804634438673,-0.051
2.6648022373152216,-0.053
2.6667998401917696,-0.054
2.6687974430683177,-0.054
2.6707950459448657,-0.052
2.672792648821414,-0.051
2.6747902516979623,-0.05
2.6767878545745103,-0.048
2.6787854574510583,-0.049
2.6807830603276064,-0.051
2.682780663204155,-0.049
2.684778266080703,-0.051
2.686775868957251,-0.052
2.688773471833799,-0.051
2.6907710747103475,-0.05
2.6927686775868955,-0.051
2.6947662804634436,-0.052
2.6967638833399916,-0.05
2.6987614862165397,-0.048
2.700759089093088,-0.051
2.702756691969636,-0.052
2.7047542948461842,-0.054
2.7067518977227323,-0.057
2.7087495005992808,-0.058
2.710747103475829,-0.059
2.712744706352377,-0.063
2.714742309228925,-0.062
2.716739912105473,-0.058
2.7187375149820214,-0.062
2.7207351178585695,-0.064
2.7227327207351175,-0.065
2.7247303236116656,-0.065
2.726727926488214,-0.064
2.728725529364762,-0.063
2.73072313224131,-0.06
2.732720735117858,-0.059
2.7347183379944062,-0.058
2.7367159408709547,-0.057
2.7387135437475028,-0.057
2.740711146624051,-0.056
2.742708749500599,-0.059
2.7447063523771473,-0.059
2.7467039552536954,-0.057
2.7487015581302434,-0.052
2.7506991610067915,-0.053
2.7526967638833395,-0.054
2.754694366759888,-0.054
2.756691969636436,-0.054
2.758689572512984,-0.057
2.760687175389532,-0.057
2.7626847782660806,-0.058
2.7646823811426287,-0.056
2.7666799840191767,-0.054
2.7686775868957247,-0.054
2.770675189772273,-0.054
2.7726727926488213,-0.054
2.7746703955253693,-0.055
2.7766679984019174,-0.058
2.7786656012784654,-0.056
2.780663204155014,-0.057
2.782660807031562,-0.055
2.78465840990811,-0.05
2.786656012784658,-0.052
2.788653615661206,-0.057
2.7906512185377546,-0.059
2.7926488214143026,-0.062
2.7946464242908506,-0.063
2.7966440271673987,-0.066
2.798641630043947,-0.068
2.800639232920495,-0.065
2.8026368357970433,-0.064
2.8046344386735913,-0.063
2.8066320415501393,-0.063
2.808629644426688,-0.065
2.810627247303236,-0.063
2.812624850179784,-0.061
2.814622453056332,-0.062
2.8166200559328805,-0.063
2.8186176588094285,-0.064
2.8206152616859765,-0.062
2.8226128645625246,-0.06
2.8246104674390726,-0.061
2.826608070315621,-0.06
2.828605673192169,-0.06
2.830603276068717,-0.061
2.8326008789452652,-0.061
2.8345984818218137,-0.062
2.8365960846983618,-0.061
2.83859368757491,-0.058
2.840591290451458,-0.059
2.842588893328006,-0.061
2.8445864962045544,-0.061
2.8465840990811024,-0.06
2.8485817019576505,-0.057
2.8505793048341985,-0.058
2.852576907710747,-0.057
2.854574510587295,-0.059
2.856572113463843,-0.062
2.858569716340391,-0.064
2.860567319216939,-0.063
2.8625649220934877,-0.061
2.8645625249700357,-0.056
2.8665601278465838,-0.051
2.868557730723132,-0.054
2.8705553335996803,-0.055
2.8725529364762283,-0.058
2.8745505393527764,-0.056
2.8765481422293244,-0.054
2.8785457451058725,-0.056
2.880543347982421,-0.052
2.882540950858969,-0.053
2.884538553735517,-0.056
2.886536156612065,-0.057
2.8885337594886136,-0.057
2.8905313623651616,-0.056
2.8925289652417097,-0.056
2.8945265681182577,-0.058
2.8965241709948057,-0.061
2.8985217738713542,-0.06
2.9005193767479023,-0.059
2.9025169796244503,-0.057
2.9045145825009984,-0.055
2.906512185377547,-0.061
2.908509788254095,-0.061
2.910507391130643,-0.059
2.912504994007191,-0.06
2.914502596883739,-0.059
2.9165001997602875,-0.057
2.9184978026368356,-0.059
2.9204954055133836,-0.059
2.9224930083899316,-0.057
2.92449061126648,-0.059
2.926488214143028,-0.06
2.928485817019576,-0.06
2.9304834198961243,-0.061
2.9324810227726723,-0.059
2.934478625649221,-0.059
2.936476228525769,-0.062
2.938473831402317,-0.064
2.940471434278865,-0.064
2.9424690371554134,-0.064
2.9444666400319615,-0.061
2.9464642429085095,-0.06
2.9484618457850575,-0.063
2.9504594486616056,-0.065
2.952457051538154,-0.07
2.954454654414702,-0.071
2.95645225729125,-0.068
2.958449860167798,-0.07
2.9604474630443467,-0.071
2.9624450659208947,-0.071
2.964442668797443,-0.071
2.966440271673991,-0.07
2.968437874550539,-0.072
2.9704354774270874,-0.071
2.9724330803036354,-0.071
2.9744306831801834,-0.076
2.9764282860567315,-0.077
2.97842588893328,-0.074
2.980423491809828,-0.071
2.982421094686376,-0.07
2.984418697562924,-0.072
2.986416300439472,-0.072
2.9884139033160206,-0.07
2.9904115061925687,-0.071
2.9924091090691167,-0.07
2.9944067119456648,-0.068
2.9964043148222133,-0.068
2.9984019176987613,-0.066
3.0003995205753093,-0.065
3.0023971234518574,-0.067
3.0043947263284054,-0.07
3.006392329204954,-0.069
3.008389932081502,-0.069
3.01038753495805,-0.068
3.012385137834598,-0.067
3.0143827407111465,-0.068
3.0163803435876946,-0.067
3.0183779464642426,-0.064
3.0203755493407907,-0.064
3.0223731522173387,-0.062
3.024370755093887,-0.06
3.0263683579704352,-0.058
3.0283659608469833,-0.059
3.0303635637235313,-0.059
3.03236116660008,-0.057
3.034358769476628,-0.057
3.036356372353176,-0.051
3.038353975229724,-0.053
3.040351578106272,-0.051
3.0423491809828205,-0.051
3.0443467838593685,-0.05
3.0463443867359166,-0.045
3.0483419896124646,-0.044
3.050339592489013,-0.049
3.052337195365561,-0.056
3.054334798242109,-0.062
3.0563324011186572,-0.061
3.0583300039952053,-0.06
3.0603276068717538,-0.059
3.062325209748302,-0.057
3.06432281262485,-0.059
3.066320415501398,-0.061
3.068318018377946,-0.064
3.0703156212544944,-0.064
3.0723132241310425,-0.059
3.0743108270075905,-0.057
3.0763084298841386,-0.056
3.078306032760687,-0.054
3.080303635637235,-0.05
3.082301238513783,-0.051
3.084298841390331,-0.053
3.086296444266879,-0.054
3.0882940471434277,-0.052
3.0902916500199757,-0.051
3.092289252896524,-0.051
3.094286855773072,-0.052
3.0962844586496203,-0.051
3.0982820615261684,-0.051
3.1002796644027164,-0.051
3.1022772672792644,-0.05
3.1042748701558125,-0.049
3.106272473032361,-0.049
3.108270075908909,-0.052
3.110267678785457,-0.054
3.112265281662005,-0.054
3.1142628845385536,-0.052
3.1162604874151016,-0.048
3.1182580902916497,-0.047
3.1202556931681977,-0.044
3.1222532960447458,-0.04
3.1242508989212943,-0.04
3.1262485017978423,-0.04
3.1282461046743903,-0.035
3.1302437075509384,-0.032
3.132241310427487,-0.031
3.134238913304035,-0.029
3.136236516180583,-0.028
3.138234119057131,-0.029
3.140231721933679,-0.03
3.1422293248102275,-0.027
3.1442269276867756,-0.026
3.1462245305633236,-0.026
3.1482221334398717,-0.026
3.15021973631642,-0.024
3.152217339192968,-0.019
3.1542149420695162,-0.015
3.1562125449460643,-0.009
3.1582101478226123,-0.005
3.160207750699161,-0.006
3.162205353575709,-0.005
3.164202956452257,-0.002
3.166200559328805,-0.001
3.1681981622053534,-0.002
3.1701957650819015,-0.003
3.1721933679584495,0.004
3.1741909708349976,0.004
3.1761885737115456,0.001
3.178186176588094,0.004
3.180183779464642,0.006
3.18218138234119,0.003
3.1841789852177382,0.0
3.1861765880942867,0.001
3.1881741909708348,-0.002
3.190171793847383,-0.002
3.192169396723931,-0.006
3.194166999600479,-0.008
3.1961646024770274,-0.005
3.1981622053535754,-0.008
3.2001598082301235,-0.012
3.2021574111066715,-0.013
3.20415501398322,-0.014
3.206152616859768,-0.019
3.208150219736316,-0.024
3.210147822612864,-0.028
3.212145425489412,-0.032
3.2141430283659607,-0.037
3.2161406312425087,-0.041
3.2181382341190568,-0.043
3.220135836995605,-0.045
3.2221334398721533,-0.046
3.2241310427487013,-0.043
3.2261286456252494,-0.045
3.2281262485017974,-0.05
3.2301238513783455,-0.051
3.232121454254894,-0.053
3.234119057131442,-0.054
3.23611666000799,-0.056
3.238114262884538,-0.059
3.2401118657610866,-0.06
3.2421094686376346,-0.064
3.2441070715141826,-0.064
3.2461046743907307,-0.064
3.2481022772672787,-0.065
3.2500998801438272,-0.066
3.2520974830203753,-0.067
3.2540950858969233,-0.068
3.2560926887734714,-0.069
3.25809029165002,-0.072
3.260087894526568,-0.074
3.262085497403116,-0.071
3.264083100279664,-0.066
3.266080703156212,-0.065
3.2680783060327605,-0.068
3.2700759089093085,-0.07
3.2720735117858566,-0.07
3.2740711146624046,-0.073
3.276068717538953,-0.072
3.278066320415501,-0.072
3.280063923292049,-0.076
3.2820615261685973,-0.079
3.2840591290451453,-0.08
3.286056731921694,-0.081
3.288054334798242,-0.082
3.29005193767479,-0.084
3.292049540551338,-0.085
3.2940471434278864,-0.085
3.2960447463044344,-0.085
3.2980423491809825,-0.085
3.3000399520575305,-0.085
3.3020375549340786,-0.084
3.304035157810627,-0.083
3.306032760687175,-0.08
3.308030363563723,-0.078
3.310027966440271,-0.078
3.3120255693168197,-0.077
3.3140231721933677,-0.078
3.3160207750699158,-0.076
3.318018377946464,-0.074
3.320015980823012,-0.074
3.3220135836995603,-0.075
3.3240111865761084,-0.077
3.3260087894526564,-0.076
3.3280063923292045,-0.076
3.330003995205753,-0.076
3.332001598082301,-0.074
3.333999200958849,-0.071
3.335996803835397,-0.065
3.337994406711945,-0.057
3.3399920095884936,-0.056
3.3419896124650417,-0.057
3.3439872153415897,-0.054
3.3459848182181378,-0.057
3.3479824210946862,-0.065
3.3499800239712343,-0.067
3.3519776268477823,-0.062
3.3539752297243304,-0.051
3.3559728326008784,-0.038
3.357970435477427,-0.024
3.359968038353975,-0.003
3.361965641230523,0.009
3.363963244107071,0.029
3.3659608469836195,0.051
3.3679584498601676,0.07
3.3699560527367156,0.102
3.3719536556132637,0.149
3.3739512584898117,0.196
3.37594886136636,0.226
3.3779464642429082,0.245
3.3799440671194563,0.271
3.3819416699960043,0.303
3.383939272872553,0.341
3.385936875749101,0.39
3.387934478625649,0.428
3.389932081502197,0.456
3.391929684378745,0.482
3.3939272872552935,0.506
3.3959248901318415,0.533
3.3979224930083896,0.558
3.3999200958849376,0.572
3.401917698761486,0.574
3.403915301638034,0.568
3.405912904514582,0.548
3.40791050739113,0.519
3.4099081102676783,0.485
3.4119057131442267,0.444
3.413903316020775,0.394
3.415900918897323,0.343
3.417898521773871,0.288
3.4198961246504194,0.232
3.4218937275269674,0.182
3.4238913304035155,0.135
3.4258889332800635,0.088
3.4278865361566115,0.04
3.42988413903316,-0.003
3.431881741909708,-0.035
3.433879344786256,-0.055
3.435876947662804,-0.048
3.4378745505393526,-0.045
3.4398721534159007,-0.056
3.4418697562924487,-0.063
3.4438673591689968,-0.071
3.445864962045545,-0.077
3.4478625649220933,-0.079
3.4498601677986414,-0.084
3.4518577706751894,-0.092
3.4538553735517374,-0.099
3.455852976428286,-0.1
3.457850579304834,-0.098
3.459848182181382,-0.1
3.46184578505793,-0.102
3.463843387934478,-0.099
3.4658409908110266,-0.087
3.4678385936875746,-0.082
3.4698361965641227,-0.085
3.4718337994406707,-0.086
3.473831402317219,-0.086
3.4758290051937673,-0.083
3.4778266080703153,-0.079
3.4798242109468633,-0.08
3.4818218138234114,-0.082
3.48381941669996,-0.081
3.485817019576508,-0.074
3.487814622453056,-0.068
3.489812225329604,-0.068
3.491809828206152,-0.071
3.4938074310827005,-0.073
3.4958050339592486,-0.075
3.4978026368357966,-0.074
3.4998002397123447,-0.073
3.501797842588893,-0.074
3.503795445465441,-0.075
3.5057930483419892,-0.077
3.5077906512185373,-0.078
3.5097882540950853,-0.076
3.511785856971634,-0.074
3.513783459848182,-0.074
3.51578106272473,-0.072
3.517778665601278,-0.07
3.5197762684778264,-0.07
3.5217738713543745,-0.071
3.5237714742309225,-0.073
3.5257690771074706,-0.074
3.5277666799840186,-0.073
3.529764282860567,-0.072
3.531761885737115,-0.071
3.533759488613663,-0.073
3.5357570914902112,-0.075
3.5377546943667597,-0.075
3.5397522972433078,-0.074
3.541749900119856,-0.073
3.543747502996404,-0.071
3.545745105872952,-0.072
3.5477427087495004,-0.074
3.5497403116260484,-0.074
3.5517379145025965,-0.072
3.5537355173791445,-0.071
3.555733120255693,-0.07
3.557730723132241,-0.068
3.559728326008789,-0.067
3.561725928885337,-0.069
3.563723531761885,-0.073
3.5657211346384337,-0.073
3.5677187375149817,-0.07
3.5697163403915297,-0.07
3.571713943268078,-0.071
3.5737115461446263,-0.071
3.5757091490211743,-0.071
3.5777067518977224,-0.069
3.5797043547742704,-0.067
3.5817019576508184,-0.068
3.583699560527367,-0.069
3.585697163403915,-0.07
3.587694766280463,-0.071
3.589692369157011,-0.071
3.5916899720335596,-0.072
3.5936875749101076,-0.073
3.5956851777866556,-0.072
3.5976827806632037,-0.072
3.5996803835397517,-0.071
3.6016779864163,-0.07
3.6036755892928483,-0.071
3.6056731921693963,-0.072
3.6076707950459443,-0.073
3.609668397922493,-0.074
3.611666000799041,-0.07
3.613663603675589,-0.068
3.615661206552137,-0.07
3.617658809428685,-0.071
3.6196564123052335,-0.072
3.6216540151817815,-0.069
3.6236516180583296,-0.069
3.6256492209348776,-0.07
3.627646823811426,-0.067
3.629644426687974,-0.066
3.631642029564522,-0.066
3.6336396324410702,-0.066
3.6356372353176183,-0.066
3.6376348381941668,-0.068
3.639632441070715,-0.065
3.641630043947263,-0.064
3.643627646823811,-0.067
3.6456252497003594,-0.063
3.6476228525769074,-0.061
3.6496204554534555,-0.062
3.6516180583300035,-0.06
3.6536156612065516,-0.059
3.6556132640831,-0.061
3.657610866959648,-0.064
3.659608469836196,-0.065
3.661606072712744,-0.07
3.6636036755892927,-0.071
3.6656012784658407,-0.068
3.6675988813423888,-0.066
3.669596484218937,-0.063
3.671594087095485,-0.064
3.6735916899720333,-0.064
3.6755892928485814,-0.061
3.6775868957251294,-0.061
3.6795844986016775,-0.059
3.681582101478226,-0.059
3.683579704354774,-0.062
3.685577307231322,-0.061
3.68757491010787,-0.06
3.689572512984418,-0.059
3.6915701158609666,-0.057
3.6935677187375147,-0.057
3.6955653216140627,-0.058
3.6975629244906107,-0.058
3.6995605273671592,-0.058
3.7015581302437073,-0.055
3.7035557331202553,-0.054
3.7055533359968034,-0.058
3.7075509388733514,-0.058
3.7095485417499,-0.058
3.711546144626448,-0.056
3.713543747502996,-0.054
3.715541350379544,-0.056
3.7175389532560925,-0.054
3.7195365561326406,-0.052
3.7215341590091886,-0.052
3.7235317618857366,-0.054
3.7255293647622847,-0.052
3.727526967638833,-0.052
3.729524570515381,-0.051
3.7315221733919293,-0.05
3.7335197762684773,-0.049
3.735517379145026,-0.048
3.737514982021574,-0.046
3.739512584898122,-0.05
3.74151018777467,-0.051
3.743507790651218,-0.05
3.7455053935277665,-0.046
3.7475029964043145,-0.043
3.7495005992808625,-0.042
3.7514982021574106,-0.042
3.753495805033959,-0.042
3.755493407910507,-0.04
3.757491010787055,-0.037
3.759488613663603,-0.036
3.7614862165401513,-0.037
3.7634838194166997,-0.037
3.765481422293248,-0.036
3.767479025169796,-0.037
3.769476628046344,-0.036
3.7714742309228924,-0.035
3.7734718337994404,-0.037
3.7754694366759884,-0.036
3.7774670395525365,-0.038
3.7794646424290845,-0.038
3.781462245305633,-0.036
3.783459848182181,-0.036
3.785457451058729,-0.034
3.787455053935277,-0.032
3.7894526568118256,-0.028
3.7914502596883737,-0.025
3.7934478625649217,-0.026
3.7954454654414698,-0.025
3.797443068318018,-0.021
3.7994406711945663,-0.02
3.8014382740711143,-0.021
3.8034358769476624,-0.025
3.8054334798242104,-0.026
3.807431082700759,-0.022
3.809428685577307,-0.022
3.811426288453855,-0.023
3.813423891330403,-0.017
3.815421494206951,-0.015
3.8174190970834996,-0.013
3.8194166999600476,-0.007
3.8214143028365957,-0.008
3.8234119057131437,-0.006
3.825409508589692,-0.005
3.8274071114662402,-0.004
3.8294047143427883,0.0
3.8314023172193363,0.002
3.8333999200958844,0.004
3.835397522972433,0.003
3.837395125848981,0.001
3.839392728725529,0.003
3.841390331602077,0.003
3.8433879344786255,-0.001
3.8453855373551735,0.002
3.8473831402317216,0.007
3.8493807431082696,0.007
3.8513783459848177,0.009
3.853375948861366,0.01
3.855373551737914,0.01
3.8573711546144622,0.011
3.8593687574910103,0.013
3.8613663603675588,0.017
3.863363963244107,0.021
3.865361566120655,0.022
3.867359168997203,0.021
3.869356771873751,0.022
3.8713543747502994,0.022
3.8733519776268475,0.028
3.8753495805033955,0.031
3.8773471833799436,0.033
3.879344786256492,0.036
3.88134238913304,0.038
3.883339992009588,0.042
3.885337594886136,0.041
3.887335197762684,0.039
3.8893328006392327,0.039
3.8913304035157807,0.038
3.893328006392329,0.035
3.895325609268877,0.037
3.897323212145425,0.037
3.8993208150219734,0.038
3.9013184178985214,0.043
3.9033160207750695,0.043
3.9053136236516175,0.047
3.907311226528166,0.049
3.909308829404714,0.049
3.911306432281262,0.047
3.91330403515781,0.045
3.915301638034358,0.048
3.9172992409109066,0.048
3.9192968437874547,0.048
3.9212944466640027,0.048
3.9232920495405508,0.046
3.9252896524170993,0.045
3.9272872552936473,0.045
3.9292848581701953,0.045
3.9312824610467434,0.045
3.9332800639232914,0.048
3.93527766679984,0.052
3.937275269676388,0.05
3.939272872552936,0.049
3.941270475429484,0.049
3.9432680783060325,0.048
3.9452656811825806,0.05
3.9472632840591286,0.052
3.9492608869356767,0.051
3.9512584898122247,0.051
3.953256092688773,0.053
3.9552536955653212,0.053
3.9572512984418693,0.054
3.9592489013184173,0.054
3.961246504194966,0.049
3.963244107071514,0.045
3.965241709948062,0.04
3.96723931282461,0.038
3.969236915701158,0.038
3.9712345185777065,0.037
3.9732321214542545,0.036
3.9752297243308026,0.033
3.9772273272073506,0.031
3.979224930083899,0.028
3.981222532960447,0.026
3.983220135836995,0.027
3.9852177387135432,0.028
3.9872153415900913,0.022
3.9892129444666398,0.018
3.991210547343188,0.018
3.993208150219736,0.015
3.995205753096284,0.014
3.9972033559728324,0.011
3.9992009588493804,0.009
4.0011985617259285,0.005
4.0031961646024765,0.001
4.005193767479025,0.001
4.007191370355573,-0.003
4.009188973232121,-0.006
4.01118657610867,-0.006
4.013184178985218,-0.009
4.015181781861766,-0.013
4.017179384738314,-0.015
4.019176987614862,-0.016
4.02117459049141,-0.017
4.023172193367958,-0.017
4.025169796244506,-0.017
4.027167399121054,-0.015
4.029165001997603,-0.022
4.031162604874151,-0.029
4.033160207750699,-0.029
4.035157810627247,-0.033
4.037155413503795,-0.033
4.039153016380343,-0.035
4.041150619256891,-0.037
4.043148222133439,-0.04
4.045145825009987,-0.044
4.047143427886536,-0.045
4.049141030763084,-0.047
4.051138633639632,-0.047
4.05313623651618,-0.051
4.055133839392728,-0.052
4.057131442269276,-0.054
4.059129045145824,-0.058
4.061126648022372,-0.056
4.0631242508989205,-0.054
4.065121853775469,-0.053
4.0671194566520175,-0.056
4.0691170595285655,-0.057
4.0711146624051135,-0.058
4.073112265281662,-0.06
4.07510986815821,-0.061
4.077107471034758,-0.064
4.079105073911306,-0.061
4.081102676787854,-0.061
4.083100279664403,-0.06
4.085097882540951,-0.061
4.087095485417499,-0.06
4.089093088294047,-0.062
4.091090691170595,-0.068
4.093088294047143,-0.061
4.095085896923691,-0.064
4.097083499800239,-0.068
4.099081102676787,-0.067
4.101078705553336,-0.068
4.103076308429884,-0.067
4.105073911306432,-0.067
4.10707151418298,-0.068
4.109069117059528,-0.068
4.111066719936076,-0.068
4.113064322812624,-0.07
4.115061925689172,-0.068
4.11705952856572,-0.064
4.119057131442269,-0.066
4.121054734318817,-0.07
4.123052337195365,-0.069
4.125049940071913,-0.068
4.127047542948461,-0.067
4.1290451458250095,-0.066
4.1310427487015575,-0.066
4.133040351578106,-0.065
4.135037954454654,-0.07
4.1370355573312025,-0.071
4.139033160207751,-0.07
4.141030763084299,-0.068
4.143028365960847,-0.066
4.145025968837395,-0.07
4.147023571713943,-0.074
4.149021174590491,-0.074
4.151018777467039,-0.072
4.153016380343587,-0.069
4.155013983220136,-0.066
4.157011586096684,-0.067
4.159009188973232,-0.069
4.16100679184978,-0.07
4.163004394726328,-0.07
4.165001997602876,-0.073
4.166999600479424,-0.074
4.168997203355972,-0.071
4.17099480623252,-0.07
4.172992409109069,-0.07
4.174990011985617,-0.069
4.176987614862165,-0.066
4.178985217738713,-0.066
4.180982820615261,-0.069
4.182980423491809,-0.068
4.184978026368357,-0.068
4.186975629244905,-0.064
4.1889732321214534,-0.061
4.190970834998002,-0.065
4.19296843787455,-0.069
4.1949660407510985,-0.066
4.1969636436276465,-0.061
4.1989612465041946,-0.064
4.200958849380743,-0.067
4.202956452257291,-0.069
4.204954055133839,-0.07
4.206951658010387,-0.071
4.208949260886936,-0.069
4.210946863763484,-0.07
4.212944466640032,-0.073
4.21494206951658,-0.07
4.216939672393128,-0.064
4.218937275269676,-0.064
4.220934878146224,-0.06
4.222932481022772,-0.057
4.22493008389932,-0.056
4.226927686775869,-0.054
4.228925289652417,-0.056
4.230922892528965,-0.054
4.232920495405513,-0.054
4.234918098282061,-0.058
4.236915701158609,-0.054
4.238913304035157,-0.055
4.240910906911705,-0.057
4.242908509788253,-0.058
4.244906112664802,-0.062
4.24690371554135,-0.056
4.248901318417898,-0.056
4.250898921294446,-0.059
4.252896524170994,-0.057
4.254894127047542,-0.061
4.2568917299240905,-0.064
4.2588893328006385,-0.062
4.260886935677187,-0.061
4.2628845385537355,-0.06
4.2648821414302835,-0.061
4.266879744306832,-0.06
4.26887734718338,-0.058
4.270874950059928,-0.059
4.272872552936476,-0.057
4.274870155813024,-0.053
4.276867758689572,-0.054
4.27886536156612,-0.054
4.280862964442669,-0.051
4.282860567319217,-0.053
4.284858170195765,-0.058
4.286855773072313,-0.059
4.288853375948861,-0.063
4.290850978825409,-0.062
4.292848581701957,-0.057
4.294846184578505,-0.053
4.296843787455053,-0.051
4.298841390331602,-0.05
4.30083899320815,-0.052
4.302836596084698,-0.051
4.304834198961246,-0.051
4.306831801837794,-0.054
4.308829404714342,-0.054
4.31082700759089,-0.052
4.312824610467438,-0.051
4.314822213343986,-0.051
4.316819816220535,-0.05
4.318817419097083,-0.051
4.320815021973631,-0.054
4.3228126248501795,-0.052
4.3248102277267275,-0.051
4.326807830603276,-0.051
4.328805433479824,-0.049
4.330803036356372,-0.05
4.33280063923292,-0.051
4.334798242109469,-0.051
4.336795844986017,-0.054
4.338793447862565,-0.056
4.340791050739113,-0.051
4.342788653615661,-0.05
4.344786256492209,-0.051
4.346783859368757,-0.05
4.348781462245305,-0.05
4.350779065121853,-0.054
4.352776667998402,-0.053
4.35477427087495,-0.05
4.356771873751498,-0.045
4.358769476628046,-0.046
4.360767079504594,-0.057
4.362764682381142,-0.06
4.36476228525769,-0.057
4.366759888134238,-0.057
4.368757491010786,-0.058
4.370755093887335,-0.056
4.372752696763883,-0.058
4.374750299640431,-0.052
4.376747902516979,-0.051
4.378745505393527,-0.053
4.380743108270075,-0.051
4.3827407111466234,-0.054
4.3847383140231715,-0.054
4.3867359168997195,-0.051
4.3887335197762685,-0.05
4.3907311226528165,-0.051
4.3927287255293646,-0.052
4.394726328405913,-0.054
4.396723931282461,-0.054
4.398721534159009,-0.051
4.400719137035557,-0.051
4.402716739912105,-0.053
4.404714342788653,-0.055
4.406711945665202,-0.054
4.40870954854175,-0.055
4.410707151418298,-0.053
4.412704754294846,-0.053
4.414702357171394,-0.056
4.416699960047942,-0.056
4.41869756292449,-0.053
4.420695165801038,-0.052
4.422692768677586,-0.057
4.424690371554135,-0.053
4.426687974430683,-0.054
4.428685577307231,-0.056
4.430683180183779,-0.054
4.432680783060327,-0.053
4.434678385936875,-0.05
4.436675988813423,-0.053
4.438673591689971,-0.054
4.440671194566519,-0.053
4.442668797443068,-0.054
4.444666400319616,-0.054
4.446664003196164,-0.052
4.448661606072712,-0.051
4.4506592089492605,-0.056
4.4526568118258085,-0.056
4.454654414702357,-0.053
4.456652017578905,-0.056
4.458649620455453,-0.058
4.460647223332002,-0.059
4.46264482620855,-0.061
4.464642429085098,-0.062
4.466640031961646,-0.061
4.468637634838194,-0.058
4.470635237714742,-0.058
4.47263284059129,-0.057
4.474630443467838,-0.058
4.476628046344386,-0.06
4.478625649220935,-0.061
4.480623252097483,-0.062
4.482620854974031,-0.064
4.484618457850579,-0.067
4.486616060727127,-0.066
4.488613663603675,-0.061
4.490611266480223,-0.063
4.492608869356771,-0.064
4.494606472233319,-0.066
4.496604075109868,-0.07
4.498601677986416,-0.07
4.500599280862964,-0.071
4.502596883739512,-0.069
4.50459448661606,-0.062
4.506592089492608,-0.064
4.508589692369156,-0.065
4.5105872952457045,-0.07
4.5125848981222525,-0.072
4.5145825009988005,-0.064
4.5165801038753495,-0.061
4.5185777067518975,-0.059
4.520575309628446,-0.059
4.522572912504994,-0.064
4.524570515381542,-0.064
4.52656811825809,-0.067
4.528565721134638,-0.066
4.530563324011186,-0.065
4.532560926887734,-0.068
4.534558529764283,-0.068
4.536556132640831,-0.068
4.538553735517379,-0.07
4.540551338393927,-0.07
4.542548941270475,-0.063
4.544546544147023,-0.057
4.546544147023571,-0.06
4.548541749900119,-0.065
4.550539352776667,-0.066
4.552536955653216,-0.068
4.554534558529764,-0.068
4.556532161406312,-0.067
4.55852976428286,-0.066
4.560527367159408,-0.066
4.562524970035956,-0.068
4.564522572912504,-0.068
4.566520175789052,-0.066
4.5685177786656,-0.064
4.570515381542149,-0.067
4.572512984418697,-0.068
4.574510587295245,-0.07
4.5765081901717934,-0.072
4.5785057930483415,-0.066
4.5805033959248895,-0.064
4.582500998801438,-0.065
4.584498601677986,-0.065
4.586496204554534,-0.067
4.588493807431083,-0.065
4.590491410307631,-0.064
4.592489013184179,-0.069
4.594486616060727,-0.07
4.596484218937275,-0.07
4.598481821813823,-0.067
4.600479424690371,-0.066
4.602477027566919,-0.067
4.604474630443467,-0.064
4.606472233320016,-0.07
4.608469836196564,-0.069
4.610467439073112,-0.068
4.61246504194966,-0.068
4.614462644826208,-0.067
4.616460247702756,-0.07
4.618457850579304,-0.07
4.620455453455852,-0.068
4.6224530563324,-0.063
4.624450659208949,-0.064
4.626448262085497,-0.064
4.628445864962045,-0.065
4.630443467838593,-0.069
4.632441070715141,-0.065
4.634438673591689,-0.068
4.636436276468237,-0.07
4.6384338793447855,-0.067
4.6404314822213335,-0.064
4.642429085097882,-0.067
4.6444266879744305,-0.067
4.6464242908509785,-0.064
4.648421893727527,-0.064
4.650419496604075,-0.062
4.652417099480623,-0.066
4.654414702357171,-0.068
4.656412305233719,-0.069
4.658409908110267,-0.07
4.660407510986816,-0.068
4.662405113863364,-0.068
4.664402716739912,-0.066
4.66640031961646,-0.068
4.668397922493008,-0.069
4.670395525369556,-0.066
4.672393128246104,-0.066
4.674390731122652,-0.063
4.6763883339992,-0.064
4.678385936875749,-0.064
4.680383539752297,-0.065
4.682381142628845,-0.067
4.684378745505393,-0.07
4.686376348381941,-0.071
4.688373951258489,-0.074
4.690371554135037,-0.071
4.692369157011585,-0.068
4.694366759888133,-0.073
4.696364362764682,-0.076
4.69836196564123,-0.072
4.700359568517778,-0.071
4.702357171394326,-0.07
4.7043547742708745,-0.064
4.7063523771474225,-0.064
4.7083499800239705,-0.058
4.710347582900519,-0.06
4.712345185777067,-0.067
4.714342788653616,-0.068
4.716340391530164,-0.07
4.718337994406712,-0.069
4.72033559728326,-0.073
4.722333200159808,-0.074
4.724330803036356,-0.068
4.726328405912904,-0.064
4.728326008789452,-0.064
4.730323611666,-0.065
4.732321214542549,-0.067
4.734318817419097,-0.069
4.736316420295645,-0.07
4.738314023172193,-0.071
4.740311626048741,-0.071
4.742309228925289,-0.071
4.744306831801837,-0.073
4.746304434678385,-0.071
4.748302037554933,-0.07
4.750299640431482,-0.07
4.75229724330803,-0.072
4.754294846184578,-0.07
4.756292449061126,-0.064
4.758290051937674,-0.061
4.760287654814222,-0.06
4.76228525769077,-0.064
4.764282860567318,-0.066
4.7662804634438665,-0.065
4.768278066320415,-0.068
4.770275669196963,-0.07
4.7722732720735115,-0.07
4.7742708749500595,-0.069
4.776268477826608,-0.067
4.778266080703156,-0.069
4.780263683579704,-0.07
4.782261286456252,-0.07
4.7842588893328,-0.068
4.786256492209349,-0.063
4.788254095085897,-0.065
4.790251697962445,-0.069
4.792249300838993,-0.073
4.794246903715541,-0.074
4.796244506592089,-0.074
4.798242109468637,-0.073
4.800239712345185,-0.075
4.802237315221733,-0.08
4.804234918098282,-0.078
4.80623252097483,-0.077
4.808230123851378,-0.075
4.810227726727926,-0.077
4.812225329604474,-0.079
4.814222932481022,-0.077
4.81622053535757,-0.079
4.818218138234118,-0.076
4.820215741110666,-0.073
4.822213343987215,-0.072
4.824210946863763,-0.07
4.826208549740311,-0.067
4.828206152616859,-0.065
4.830203755493407,-0.071
4.8322013583699555,-0.071
4.8341989612465035,-0.071
4.8361965641230515,-0.069
4.8381941669996,-0.064
4.8401917698761485,-0.066
4.842189372752697,-0.066
4.844186975629245,-0.069
4.846184578505793,-0.069
4.848182181382341,-0.064
4.850179784258889,-0.061
4.852177387135437,-0.06
4.854174990011985,-0.063
4.856172592888533,-0.07
4.858170195765082,-0.07
4.86016779864163,-0.066
4.862165401518178,-0.068
4.864163004394726,-0.067
4.866160607271274,-0.069
4.868158210147822,-0.067
4.87015581302437,-0.057
4.872153415900918,-0.055
4.874151018777466,-0.059
4.876148621654015,-0.06
4.878146224530563,-0.063
4.880143827407111,-0.065
4.882141430283659,-0.066
4.884139033160207,-0.065
4.886136636036755,-0.061
4.888134238913303,-0.061
4.890131841789851,-0.061
4.892129444666399,-0.062
4.894127047542948,-0.066
4.896124650419496,-0.069
4.8981222532960444,-0.07
4.9001198561725925,-0.071
4.9021174590491405,-0.07
4.904115061925689,-0.071
4.906112664802237,-0.072
4.908110267678785,-0.067
4.910107870555333,-0.064
4.912105473431882,-0.066
4.91410307630843,-0.068
4.916100679184978,-0.067
4.918098282061526,-0.069
4.920095884938074,-0.069
4.922093487814622,-0.069
4.92409109069117,-0.068
4.926088693567718,-0.064
4.928086296444266,-0.07
4.930083899320815,-0.072
4.932081502197363,-0.07
4.934079105073911,-0.072
4.936076707950459,-0.071
4.938074310827007,-0.069
4.940071913703555,-0.064
4.942069516580103,-0.059
4.944067119456651,-0.054
4.946064722333199,-0.054
4.948062325209748,-0.054
4.950059928086296,-0.053
4.952057530962844,-0.055
4.954055133839392,-0.051
4.95605273671594,-0.045
4.958050339592488,-0.043
4.9600479424690365,-0.043
4.9620455453455845,-0.045
4.9640431482221326,-0.046
4.9660407510986815,-0.045
4.9680383539752295,-0.043
4.970035956851778,-0.041
4.972033559728326,-0.033
4.974031162604874,-0.029
4.976028765481422,-0.03
4.97802636835797,-0.033
4.980023971234518,-0.035
4.982021574111066,-0.032
4.984019176987615,-0.025
4.986016779864163,-0.025
4.988014382740711,-0.028
4.990011985617259,-0.025
4.992009588493807,-0.021
4.994007191370355,-0.015
4.996004794246903,-0.011
4.998002397123451,-0.009
4.999999999999999,-0.011
5.001997602876548,-0.017
5.003995205753096,-0.018
5.005992808629644,-0.021
5.007990411506192,-0.022
5.00998801438274,-0.019
5.011985617259288,-0.022
5.013983220135836,-0.024
5.015980823012384,-0.024
5.017978425888932,-0.027
5.019976028765481,-0.025
5.021973631642029,-0.023
5.023971234518577,-0.026
5.0259688373951255,-0.032
5.0279664402716735,-0.033
5.0299640431482215,-0.038
5.03196164602477,-0.041
5.033959248901318,-0.04
5.035956851777866,-0.042
5.037954454654415,-0.047
5.039952057530963,-0.055
5.041949660407511,-0.057
5.043947263284059,-0.058
5.045944866160607,-0.061
5.047942469037155,-0.065
5.049940071913703,-0.068
5.051937674790251,-0.074
5.053935277666799,-0.076
5.055932880543348,-0.077
5.057930483419896,-0.077
5.059928086296444,-0.081
5.061925689172992,-0.085
5.06392329204954,-0.082
5.065920894926088,-0.081
5.067918497802636,-0.078
5.069916100679184,-0.08
5.071913703555732,-0.086
5.073911306432281,-0.088
5.075908909308829,-0.095
5.077906512185377,-0.096
5.079904115061925,-0.091
5.081901717938473,-0.097
5.083899320815021,-0.098
5.085896923691569,-0.099
5.0878945265681175,-0.099
5.0898921294446655,-0.093
5.0918897323212144,-0.094
5.0938873351977625,-0.095
5.0958849380743105,-0.097
5.097882540950859,-0.095
5.099880143827407,-0.091
5.101877746703955,-0.094
5.103875349580503,-0.095
5.105872952457051,-0.091
5.107870555333599,-0.088
5.109868158210148,-0.09
5.111865761086696,-0.091
5.113863363963244,-0.09
5.115860966839792,-0.089
5.11785856971634,-0.091
5.119856172592888,-0.096
5.121853775469436,-0.096
5.123851378345984,-0.09
5.125848981222532,-0.088
5.127846584099081,-0.094
5.129844186975629,-0.095
5.131841789852177,-0.093
5.133839392728725,-0.089
5.135836995605273,-0.089
5.137834598481821,-0.093
5.139832201358369,-0.098
5.141829804234917,-0.099
5.143827407111465,-0.092
5.145825009988014,-0.097
5.147822612864562,-0.099
5.14982021574111,-0.098
5.151817818617658,-0.099
5.1538154214942065,-0.098
5.1558130243707545,-0.097
5.1578106272473025,-0.09
5.159808230123851,-0.084
5.161805833000399,-0.083
5.163803435876948,-0.081
5.165801038753496,-0.071
5.167798641630044,-0.07
5.169796244506592,-0.076
5.17179384738314,-0.081
5.173791450259688,-0.09
5.175789053136236,-0.087
5.177786656012784,-0.08
5.179784258889332,-0.074
5.181781861765881,-0.054
5.183779464642429,-0.037
5.185777067518977,-0.019
5.187774670395525,0.003
5.189772273272073,0.024
5.191769876148621,0.041
5.193767479025169,0.071
5.195765081901717,0.116
5.197762684778265,0.164
5.199760287654814,0.203
5.201757890531362,0.221
5.20375549340791,0.248
5.205753096284458,0.281
5.207750699161006,0.322
5.209748302037554,0.376
5.211745904914102,0.418
5.21374350779065,0.45
5.2157411106671985,0.474
5.217738713543747,0.501
5.2197363164202955,0.523
5.2217339192968435,0.538
5.2237315221733915,0.548
5.22572912504994,0.551
5.227726727926488,0.55
5.229724330803036,0.529
5.231721933679584,0.503
5.233719536556132,0.473
5.235717139432681,0.427
5.237714742309229,0.378
5.239712345185777,0.329
5.241709948062325,0.264
5.243707550938873,0.202
5.245705153815421,0.158
5.247702756691969,0.108
5.249700359568517,0.059
5.251697962445065,0.013
5.253695565321614,-0.032
5.255693168198162,-0.067
5.25769077107471,-0.087
5.259688373951258,-0.076
5.261685976827806,-0.074
5.263683579704354,-0.088
5.265681182580902,-0.097
5.26767878545745,-0.102
5.269676388333998,-0.103
5.271673991210547,-0.105
5.273671594087095,-0.113
5.275669196963643,-0.12
5.277666799840191,-0.125
5.279664402716739,-0.123
5.2816620055932875,-0.122
5.2836596084698355,-0.121
5.2856572113463836,-0.127
5.287654814222932,-0.126
5.2896524170994805,-0.114
5.291650019976029,-0.112
5.293647622852577,-0.109
5.295645225729125,-0.11
5.297642828605673,-0.112
5.299640431482221,-0.107
5.301638034358769,-0.101
5.303635637235317,-0.099
5.305633240111865,-0.096
5.307630842988414,-0.094
5.309628445864962,-0.093
5.31162604874151,-0.087
5.313623651618058,-0.083
5.315621254494606,-0.075
5.317618857371154,-0.074
5.319616460247702,-0.074
5.32161406312425,-0.072
5.323611666000798,-0.076
5.325609268877346,-0.078
5.327606871753895,-0.081
5.329604474630443,-0.079
5.331602077506991,-0.079
5.333599680383539,-0.08
5.335597283260087,-0.077
5.337594886136635,-0.079
5.339592489013183,-0.076
5.341590091889731,-0.077
5.3435876947662795,-0.075
5.345585297642828,-0.07
5.3475829005193765,-0.071
5.3495805033959245,-0.076
5.3515781062724725,-0.077
5.353575709149021,-0.071
5.355573312025569,-0.075
5.357570914902117,-0.076
5.359568517778665,-0.072
5.361566120655213,-0.074
5.363563723531762,-0.073
5.36556132640831,-0.074
5.367558929284858,-0.072
5.369556532161406,-0.07
5.371554135037954,-0.073
5.373551737914502,-0.076
5.37554934079105,-0.077
5.377546943667598,-0.084
5.379544546544146,-0.077
5.381542149420695,-0.069
5.383539752297243,-0.075
5.385537355173791,-0.076
5.387534958050339,-0.076
5.389532560926887,-0.07
5.391530163803435,-0.071
5.393527766679983,-0.073
5.395525369556531,-0.067
5.397522972433079,-0.067
5.399520575309628,-0.069
5.401518178186176,-0.073
5.403515781062724,-0.076
5.405513383939272,-0.076
5.40751098681582,-0.078
5.4095085896923685,-0.078
5.4115061925689165,-0.076
5.413503795445465,-0.074
5.415501398322013,-0.073
5.4174990011985615,-0.074
5.41949660407511,-0.072
5.421494206951658,-0.071
5.423491809828206,-0.07
5.425489412704754,-0.068
5.427487015581302,-0.071
5.42948461845785,-0.071
5.431482221334398,-0.069
5.433479824210946,-0.069
5.435477427087495,-0.068
5.437475029964043,-0.067
5.439472632840591,-0.069
5.441470235717139,-0.074
5.443467838593687,-0.077
5.445465441470235,-0.079
5.447463044346783,-0.076
5.449460647223331,-0.071
5.451458250099879,-0.072
5.453455852976428,-0.075
5.455453455852976,-0.075
5.457451058729524,-0.077
5.459448661606072,-0.078
5.46144626448262,-0.074
5.463443867359168,-0.075
5.465441470235716,-0.073
5.467439073112264,-0.07
5.4694366759888124,-0.07
5.471434278865361,-0.071
5.473431881741909,-0.072
5.4754294846184575,-0.072
5.4774270874950055,-0.068
5.4794246903715536,-0.066
5.481422293248102,-0.066
5.48341989612465,-0.063
5.485417499001198,-0.065
5.487415101877746,-0.062
5.489412704754295,-0.062
5.491410307630843,-0.066
5.493407910507391,-0.067
5.495405513383939,-0.07
5.497403116260487,-0.067
5.499400719137035,-0.068
5.501398322013583,-0.069
5.503395924890131,-0.064
5.505393527766679,-0.062
5.507391130643228,-0.064
5.509388733519776,-0.064
5.511386336396324,-0.062
5.513383939272872,-0.064
5.51538154214942,-0.059
5.517379145025968,-0.058
5.519376747902516,-0.057
5.521374350779064,-0.06
5.523371953655612,-0.064
5.525369556532161,-0.056
5.527367159408709,-0.053
5.529364762285257,-0.051
5.531362365161805,-0.051
5.533359968038353,-0.052
5.535357570914901,-0.054
5.5373551737914495,-0.056
5.5393527766679975,-0.052
5.541350379544546,-0.05
5.5433479824210945,-0.056
5.5453455852976425,-0.06
5.547343188174191,-0.054
5.549340791050739,-0.052
5.551338393927287,-0.051
5.553335996803835,-0.051
5.555333599680383,-0.05
5.557331202556931,-0.043
5.559328805433479,-0.041
5.561326408310028,-0.039
5.563324011186576,-0.04
5.565321614063124,-0.042
5.567319216939672,-0.043
5.56931681981622,-0.049
5.571314422692768,-0.049
5.573312025569316,-0.046
5.575309628445864,-0.043
5.577307231322412,-0.043
5.579304834198961,-0.041
5.581302437075509,-0.038
5.583300039952057,-0.039
5.585297642828605,-0.04
5.587295245705153,-0.041
5.589292848581701,-0.035
5.591290451458249,-0.033
5.593288054334797,-0.033
5.595285657211345,-0.029
5.597283260087894,-0.028
5.599280862964442,-0.03
5.60127846584099,-0.035
5.6032760687175385,-0.036
5.6052736715940865,-0.029
5.607271274470635,-0.028
5.609268877347183,-0.026
5.611266480223731,-0.028
5.613264083100279,-0.029
5.615261685976828,-0.027
5.617259288853376,-0.027
5.619256891729924,-0.029
5.621254494606472,-0.025
5.62325209748302,-0.018
5.625249700359568,-0.019
5.627247303236116,-0.021
5.629244906112664,-0.017
5.631242508989212,-0.013
5.633240111865761,-0.013
5.635237714742309,-0.009
5.637235317618857,-0.006
5.639232920495405,-0.004
5.641230523371953,-0.004
5.643228126248501,-0.006
5.645225729125049,-0.002
5.647223332001597,-0.006
5.649220934878145,-0.006
5.651218537754694,-0.002
5.653216140631242,-0.005
5.65521374350779,-0.006
5.657211346384338,-0.001
5.659208949260886,0.004
5.661206552137434,0.003
5.663204155013982,0.0
5.6652017578905305,0.005
5.6671993607670785,0.011
5.6691969636436275,0.009
5.6711945665201755,0.007
5.6731921693967235,0.014
5.675189772273272,0.018
5.67718737514982,0.019
5.679184978026368,0.022
5.681182580902916,0.021
5.683180183779464,0.024
5.685177786656012,0.024
5.687175389532561,0.021
5.689172992409109,0.025
5.691170595285657,0.022
5.693168198162205,0.019
5.695165801038753,0.025
5.697163403915301,0.026
5.699161006791849,0.025
5.701158609668397,0.029
5.703156212544945,0.035
5.705153815421494,0.036
5.707151418298042,0.035
5.70914902117459,0.035
5.711146624051138,0.037
5.713144226927686,0.042
5.715141829804234,0.04
5.717139432680782,0.043
5.71913703555733,0.043
5.721134638433878,0.041
5.723132241310427,0.047
5.725129844186975,0.05
5.727127447063523,0.049
5.729125049940071,0.05
5.7311226528166195,0.052
5.7331202556931675,0.053
5.735117858569716,0.051
5.737115461446264,0.054
5.739113064322812,0.06
5.741110667199361,0.056
5.743108270075909,0.057
5.745105872952457,0.057
5.747103475829005,0.049
5.749101078705553,0.052
5.751098681582101,0.051
5.753096284458649,0.05
5.755093887335197,0.054
5.757091490211745,0.053
5.759089093088294,0.053
5.761086695964842,0.058
5.76308429884139,0.06
5.765081901717938,0.058
5.767079504594486,0.057
5.769077107471034,0.059
5.771074710347582,0.056
5.77307231322413,0.05
5.775069916100678,0.051
5.777067518977227,0.051
5.779065121853775,0.051
5.781062724730323,0.049
5.783060327606871,0.051
5.785057930483419,0.053
5.787055533359967,0.043
5.789053136236515,0.044
5.7910507391130635,0.044
5.7930483419896115,0.042
5.79504594486616,0.043
5.7970435477427085,0.046
5.7990411506192565,0.048
5.801038753495805,0.042
5.803036356372353,0.038
5.805033959248901,0.03
5.807031562125449,0.029
5.809029165001997,0.033
5.811026767878545,0.032
5.813024370755094,0.03
5.815021973631642,0.028
5.81701957650819,0.025
5.819017179384738,0.022
5.821014782261286,0.019
5.823012385137834,0.018
5.825009988014382,0.016
5.82700759089093,0.012
5.829005193767478,0.011
5.831002796644027,0.011
5.833000399520575,0.007
5.834998002397123,0.008
5.836995605273671,0.005
5.838993208150219,0.001
5.840990811026767,0.0
5.842988413903315,-0.005
5.844986016779863,-0.011
5.846983619656411,-0.012
5.84898122253296,-0.013
5.850978825409508,-0.018
5.852976428286056,-0.019
5.854974031162604,-0.024
5.856971634039152,-0.029
5.8589692369157005,-0.026
5.8609668397922485,-0.023
5.862964442668797,-0.021
5.864962045545345,-0.03
5.8669596484218935,-0.035
5.868957251298442,-0.04
5.87095485417499,-0.035
5.872952457051538,-0.032
5.874950059928086,-0.036
5.876947662804634,-0.036
5.878945265681182,-0.044
5.88094286855773,-0.05
5.882940471434278,-0.045
5.884938074310827,-0.044
5.886935677187375,-0.048
5.888933280063923,-0.05
5.890930882940471,-0.05
5.892928485817019,-0.048
5.894926088693567,-0.046
5.896923691570115,-0.045
5.898921294446663,-0.048
5.900918897323211,-0.051
5.90291650019976,-0.05
5.904914103076308,-0.051
5.906911705952856,-0.054
5.908909308829404,-0.058
5.910906911705952,-0.055
5.9129045145825,-0.057
5.914902117459048,-0.061
5.916899720335596,-0.057
5.9188973232121445,-0.059
5.920894926088693,-0.064
5.922892528965241,-0.065
5.9248901318417895,-0.062
5.9268877347183375,-0.06
5.928885337594886,-0.063
5.930882940471434,-0.061
5.932880543347982,-0.065
5.93487814622453,-0.067
5.936875749101078,-0.066
5.938873351977627,-0.061
5.940870954854175,-0.056
5.942868557730723,-0.057
5.944866160607271,-0.058
5.946863763483819,-0.057
5.948861366360367,-0.057
5.950858969236915,-0.064
5.952856572113463,-0.061
5.954854174990011,-0.055
5.95685177786656,-0.058
5.958849380743108,-0.056
5.960846983619656,-0.054
5.962844586496204,-0.065
5.964842189372752,-0.075
5.9668397922493,-0.073
5.968837395125848,-0.066
5.970834998002396,-0.063
5.972832600878944,-0.065
5.974830203755493,-0.069
5.976827806632041,-0.066
5.978825409508589,-0.063
5.980823012385137,-0.064
5.982820615261685,-0.061
5.9848182181382334,-0.063
5.9868158210147815,-0.065
5.9888134238913295,-0.062
5.990811026767878,-0.059
5.9928086296444265,-0.059
5.9948062325209746,-0.061
5.996803835397523,-0.064
5.998801438274071,-0.064
6.000799041150619,-0.068
6.002796644027167,-0.068
6.004794246903715,-0.069
6.006791849780263,-0.07
6.008789452656811,-0.064
6.01078705553336,-0.068
6.012784658409908,-0.067
6.014782261286456,-0.065
6.016779864163004,-0.065
6.018777467039552,-0.069
6.0207750699161,-0.068
6.022772672792648,-0.06
6.024770275669196,-0.062
6.026767878545744,-0.063
6.028765481422293,-0.067
6.030763084298841,-0.065
6.032760687175389,-0.06
6.034758290051937,-0.059
6.036755892928485,-0.057
6.038753495805033,-0.057
6.040751098681581,-0.06
6.042748701558129,-0.065
6.044746304434677,-0.066
6.046743907311226,-0.07
6.048741510187774,-0.069
6.050739113064322,-0.062
6.0527367159408705,-0.058
6.0547343188174185,-0.058
6.056731921693967,-0.059
6.058729524570515,-0.059
6.060727127447063,-0.058
6.062724730323611,-0.056
6.06472233320016,-0.054
6.066719936076708,-0.055
6.068717538953256,-0.053
6.070715141829804,-0.052
6.072712744706352,-0.056
6.0747103475829,-0.061
6.076707950459448,-0.059
6.078705553335996,-0.053
6.080703156212544,-0.057
6.082700759089093,-0.054
6.084698361965641,-0.058
6.086695964842189,-0.061
6.088693567718737,-0.061
6.090691170595285,-0.065
6.092688773471833,-0.062
6.094686376348381,-0.061
6.096683979224929,-0.06
6.098681582101477,-0.065
6.100679184978026,-0.06
6.102676787854574,-0.057
6.104674390731122,-0.063
6.10667199360767,-0.064
6.108669596484218,-0.068
6.110667199360766,-0.059
6.1126648022373145,-0.051
6.1146624051138625,-0.054
6.1166600079904105,-0.06
6.1186576108669595,-0.062
6.1206552137435075,-0.06
6.122652816620056,-0.064
6.124650419496604,-0.06
6.126648022373152,-0.057
6.1286456252497,-0.059
6.130643228126248,-0.065
6.132640831002796,-0.067
6.134638433879344,-0.065
6.136636036755892,-0.059
6.138633639632441,-0.06
6.140631242508989,-0.064
6.142628845385537,-0.065
6.144626448262085,-0.067
6.146624051138633,-0.068
6.148621654015181,-0.07
6.150619256891729,-0.061
6.152616859768277,-0.058
6.154614462644825,-0.061
6.156612065521374,-0.057
6.158609668397922,-0.06
6.16060727127447,-0.064
6.162604874151018,-0.054
6.164602477027566,-0.053
6.166600079904114,-0.059
6.168597682780662,-0.063
6.17059528565721,-0.068
6.172592888533758,-0.069
6.174590491410307,-0.074
6.176588094286855,-0.073
6.1785856971634034,-0.066
6.1805833000399515,-0.067
6.1825809029164995,-0.065
6.184578505793048,-0.066
6.186576108669596,-0.067
6.188573711546144,-0.062
6.190571314422692,-0.062
6.192568917299241,-0.061
6.194566520175789,-0.056
6.196564123052337,-0.06
6.198561725928885,-0.066
6.200559328805433,-0.058
6.202556931681981,-0.058
6.204554534558529,-0.06
6.206552137435077,-0.064
6.208549740311625,-0.063
6.210547343188174,-0.06
6.212544946064722,-0.06
6.21454254894127,-0.059
6.216540151817818,-0.066
6.218537754694366,-0.065
6.220535357570914,-0.064
6.222532960447462,-0.065
6.22453056332401,-0.065
6.226528166200558,-0.066
6.228525769077107,-0.064
6.230523371953655,-0.062
6.232520974830203,-0.064
6.234518577706751,-0.064
6.236516180583299,-0.058
6.238513783459847,-0.056
6.2405113863363955,-0.058
6.2425089892129435,-0.06
6.2445065920894915,-0.062
6.2465041949660405,-0.061
6.2485017978425885,-0.061
6.250499400719137,-0.061
6.252497003595685,-0.059
6.254494606472233,-0.065
6.256492209348781,-0.068
6.258489812225329,-0.068
6.260487415101877,-0.069
6.262485017978425,-0.06
6.264482620854974,-0.056
6.266480223731522,-0.053
6.26847782660807,-0.055
6.270475429484618,-0.06
6.272473032361166,-0.061
6.274470635237714,-0.061
6.276468238114262,-0.062
6.27846584099081,-0.064
6.280463443867358,-0.057
6.282461046743907,-0.057
6.284458649620455,-0.057
6.286456252497003,-0.061
6.288453855373551,-0.064
6.290451458250099,-0.064
6.292449061126647,-0.07
6.294446664003195,-0.068
6.296444266879743,-0.07
6.298441869756291,-0.064
6.30043947263284,-0.062
6.302437075509388,-0.064
6.304434678385936,-0.06
6.3064322812624845,-0.064
6.3084298841390325,-0.065
6.3104274870155805,-0.067
6.312425089892129,-0.066
6.314422692768677,-0.061
6.316420295645225,-0.061
6.318417898521774,-0.065
6.320415501398322,-0.062
6.32241310427487,-0.062
6.324410707151418,-0.064
6.326408310027966,-0.065
6.328405912904514,-0.068
6.330403515781062,-0.068
6.33240111865761,-0.07
6.334398721534158,-0.07
6.336396324410707,-0.068
6.338393927287255,-0.072
6.340391530163803,-0.074
6.342389133040351,-0.075
6.344386735916899,-0.072
6.346384338793447,-0.066
6.348381941669995,-0.064
6.350379544546543,-0.068
6.352377147423091,-0.066
6.35437475029964,-0.067
6.356372353176188,-0.07
6.358369956052736,-0.062
6.360367558929284,-0.064
6.362365161805832,-0.069
6.36436276468238,-0.057
6.366360367558928,-0.056
6.3683579704354765,-0.065
6.3703555733120245,-0.071
6.372353176188573,-0.074
6.3743507790651215,-0.071
6.3763483819416695,-0.066
6.378345984818218,-0.065
6.380343587694766,-0.07
6.382341190571314,-0.07
6.384338793447862,-0.066
6.38633639632441,-0.064
6.388333999200958,-0.071
6.390331602077507,-0.07
6.392329204954055,-0.065
6.394326807830603,-0.07
6.396324410707151,-0.066
6.398322013583699,-0.065
6.400319616460247,-0.069
6.402317219336795,-0.074
6.404314822213343,-0.08
6.406312425089891,-0.073
6.40831002796644,-0.071
6.410307630842988,-0.07
6.412305233719536,-0.071
6.414302836596084,-0.073
6.416300439472632,-0.07
6.41829804234918,-0.071
6.420295645225728,-0.07
6.422293248102276,-0.071
6.424290850978824,-0.072
6.426288453855373,-0.065
6.428286056731921,-0.071
6.430283659608469,-0.074
6.432281262485017,-0.07
6.4342788653615655,-0.068
6.4362764682381135,-0.069
6.4382740711146615,-0.074
6.44027167399121,-0.072
6.442269276867758,-0.072
6.444266879744307,-0.071
6.446264482620855,-0.07
6.448262085497403,-0.071
6.450259688373951,-0.073
6.452257291250499,-0.077
6.454254894127047,-0.075
6.456252497003595,-0.071
6.458250099880143,-0.075
6.460247702756691,-0.078
6.46224530563324,-0.075
6.464242908509788,-0.074
6.466240511386336,-0.071
6.468238114262884,-0.071
6.470235717139432,-0.069
6.47223332001598,-0.067
6.474230922892528,-0.062
6.476228525769076,-0.063
6.478226128645624,-0.07
6.480223731522173,-0.073
6.482221334398721,-0.074
6.484218937275269,-0.071
6.486216540151817,-0.073
6.488214143028365,-0.075
6.490211745904913,-0.073
6.492209348781461,-0.074
6.494206951658009,-0.077
6.4962045545345575,-0.079
6.498202157411106,-0.078
6.5001997602876544,-0.079
6.5021973631642025,-0.08
6.5041949660407505,-0.074
6.506192568917299,-0.072
6.508190171793847,-0.072
6.510187774670395,-0.074
6.512185377546943,-0.074
6.514182980423491,-0.069
6.51618058330004,-0.071
6.518178186176588,-0.078
6.520175789053136,-0.074
6.522173391929684,-0.074
6.524170994806232,-0.073
6.52616859768278,-0.067
6.528166200559328,-0.068
6.530163803435876,-0.071
6.532161406312424,-0.072
6.534159009188973,-0.07
6.536156612065521,-0.072
6.538154214942069,-0.072
6.540151817818617,-0.066
6.542149420695165,-0.063
6.544147023571713,-0.06
6.546144626448261,-0.062
6.548142229324809,-0.067
6.550139832201357,-0.07
6.552137435077906,-0.072
6.554135037954454,-0.069
6.556132640831002,-0.07
6.55813024370755,-0.065
6.560127846584098,-0.059
6.5621254494606465,-0.062
6.5641230523371945,-0.069
6.5661206552137426,-0.077
6.568118258090291,-0.07
6.5701158609668395,-0.07
6.572113463843388,-0.074
6.574111066719936,-0.074
6.576108669596484,-0.074
6.578106272473032,-0.073
6.58010387534958,-0.073
6.582101478226128,-0.073
6.584099081102676,-0.071
6.586096683979224,-0.066
6.588094286855773,-0.061
6.590091889732321,-0.061
6.592089492608869,-0.06
6.594087095485417,-0.06
6.596084698361965,-0.061
6.598082301238513,-0.062
6.600079904115061,-0.066
6.602077506991609,-0.07
6.604075109868157,-0.072
6.606072712744706,-0.076
6.608070315621254,-0.079
6.610067918497802,-0.076
6.61206552137435,-0.072
6.614063124250898,-0.07
6.616060727127446,-0.065
6.618058330003994,-0.065
6.620055932880542,-0.068
6.62205353575709,-0.064
6.624051138633639,-0.067
6.626048741510187,-0.07
6.6280463443867355,-0.067
6.6300439472632835,-0.067
6.6320415501398315,-0.072
6.63403915301638,-0.071
6.636036755892928,-0.074
6.638034358769476,-0.074
6.640031961646024,-0.071
6.642029564522573,-0.07
6.644027167399121,-0.073
6.646024770275669,-0.075
6.648022373152217,-0.074
6.650019976028765,-0.069
6.652017578905313,-0.066
6.654015181781861,-0.066
6.656012784658409,-0.065
6.658010387534957,-0.064
6.660007990411506,-0.055
6.662005593288054,-0.051
6.664003196164602,-0.051
6.66600079904115,-0.057
6.667998401917698,-0.06
6.669996004794246,-0.053
6.671993607670794,-0.051
6.673991210547342,-0.044
6.67598881342389,-0.043
6.677986416300439,-0.042
6.679984019176987,-0.044
6.681981622053535,-0.049
6.683979224930083,-0.047
6.685976827806631,-0.046
6.687974430683179,-0.051
6.6899720335597275,-0.045
6.6919696364362755,-0.036
6.693967239312824,-0.037
6.6959648421893725,-0.033
6.6979624450659205,-0.029
6.699960047942469,-0.032
6.701957650819017,-0.031
6.703955253695565,-0.026
6.705952856572113,-0.025
6.707950459448661,-0.025
6.709948062325209,-0.022
6.711945665201757,-0.019
6.713943268078306,-0.021
6.715940870954854,-0.019
6.717938473831402,-0.013
6.71993607670795,-0.017
6.721933679584498,-0.025
6.723931282461046,-0.026
6.725928885337594,-0.021
6.727926488214142,-0.019
6.72992409109069,-0.022
6.731921693967239,-0.022
6.733919296843787,-0.021
6.735916899720335,-0.026
6.737914502596883,-0.026
6.739912105473431,-0.026
6.741909708349979,-0.035
6.743907311226527,-0.039
6.745904914103075,-0.042
6.747902516979623,-0.052
6.749900119856172,-0.054
6.75189772273272,-0.057
6.753895325609268,-0.061
6.7558929284858165,-0.059
6.7578905313623645,-0.056
6.7598881342389125,-0.061
6.761885737115461,-0.069
6.763883339992009,-0.076
6.765880942868557,-0.077
6.767878545745106,-0.076
6.769876148621654,-0.081
6.771873751498202,-0.077
6.77387135437475,-0.084
6.775868957251298,-0.09
6.777866560127846,-0.087
6.779864163004394,-0.085
6.781861765880942,-0.084
6.78385936875749,-0.083
6.785856971634039,-0.082
6.787854574510587,-0.087
6.789852177387135,-0.086
6.791849780263683,-0.084
6.793847383140231,-0.085
6.795844986016779,-0.081
6.797842588893327,-0.076
6.799840191769875,-0.084
6.801837794646423,-0.088
6.803835397522972,-0.089
6.80583300039952,-0.09
6.807830603276068,-0.086
6.809828206152616,-0.088
6.811825809029164,-0.089
6.813823411905712,-0.092
6.81582101478226,-0.09
6.8178186176588085,-0.088
6.8198162205353565,-0.093
6.8218138234119055,-0.094
6.8238114262884535,-0.089
6.8258090291650015,-0.088
6.82780663204155,-0.091
6.829804234918098,-0.091
6.831801837794646,-0.095
6.833799440671194,-0.091
6.835797043547742,-0.091
6.83779464642429,-0.091
6.839792249300839,-0.09
6.841789852177387,-0.097
6.843787455053935,-0.096
6.845785057930483,-0.091
6.847782660807031,-0.085
6.849780263683579,-0.088
6.851777866560127,-0.091
6.853775469436675,-0.093
6.855773072313223,-0.094
6.857770675189772,-0.089
6.85976827806632,-0.096
6.861765880942868,-0.097
6.863763483819416,-0.091
6.865761086695964,-0.086
6.867758689572512,-0.084
6.86975629244906,-0.089
6.871753895325608,-0.084
6.873751498202156,-0.077
6.875749101078705,-0.075
6.877746703955253,-0.072
6.879744306831801,-0.071
6.881741909708349,-0.072
6.8837395125848975,-0.074
6.8857371154614455,-0.076
6.8877347183379936,-0.084
6.889732321214542,-0.086
6.89172992409109,-0.075
6.893727526967639,-0.057
6.895725129844187,-0.04
6.897722732720735,-0.025
6.899720335597283,-0.008
6.901717938473831,0.008
6.903715541350379,0.029
6.905713144226927,0.043
6.907710747103475,0.067
6.909708349980023,0.111
6.911705952856572,0.159
6.91370355573312,0.196
6.915701158609668,0.219
6.917698761486216,0.245
6.919696364362764,0.271
6.921693967239312,0.305
6.92369157011586,0.35
6.925689172992408,0.39
6.927686775868956,0.427
6.929684378745505,0.448
6.931681981622053,0.475
6.933679584498601,0.495
6.935677187375149,0.506
6.937674790251697,0.52
6.939672393128245,0.524
6.941669996004793,0.523
6.943667598881341,0.502
6.9456652017578895,0.477
6.947662804634438,0.445
6.9496604075109865,0.398
6.9516580103875345,0.352
6.9536556132640825,0.308
6.955653216140631,0.256
6.957650819017179,0.193
6.959648421893727,0.145
6.961646024770275,0.096
6.963643627646823,0.051
6.965641230523371,0.005
6.96763883339992,-0.04
6.969636436276468,-0.069
6.971634039153016,-0.085
6.973631642029564,-0.081
6.975629244906112,-0.077
6.97762684778266,-0.085
6.979624450659208,-0.094
6.981622053535756,-0.097
6.983619656412304,-0.099
6.985617259288853,-0.102
6.987614862165401,-0.108
6.989612465041949,-0.116
6.991610067918497,-0.119
6.993607670795045,-0.122
6.995605273671593,-0.119
6.997602876548141,-0.112
6.999600479424689,-0.112
7.001598082301237,-0.112
7.003595685177786,-0.105
7.005593288054334,-0.1
7.007590890930882,-0.096
7.00958849380743,-0.097
7.0115860966839785,-0.099
7.0135836995605265,-0.094
7.015581302437075,-0.09
7.017578905313623,-0.089
7.019576508190171,-0.086
7.02157411106672,-0.08
7.023571713943268,-0.081
7.025569316819816,-0.08
7.027566919696364,-0.07
7.029564522572912,-0.071
7.03156212544946,-0.077
7.033559728326008,-0.073
7.035557331202556,-0.074
7.037554934079104,-0.069
7.039552536955653,-0.067
7.041550139832201,-0.069
7.043547742708749,-0.067
7.045545345585297,-0.07
7.047542948461845,-0.072
7.049540551338393,-0.071
7.051538154214941,-0.065
7.053535757091489,-0.062
7.055533359968037,-0.069
7.057530962844586,-0.075
7.059528565721134,-0.071
7.061526168597682,-0.067
7.06352377147423,-0.067
7.065521374350778,-0.061
7.067518977227326,-0.061
7.069516580103874,-0.063
7.0715141829804224,-0.058
7.0735117858569705,-0.054
7.075509388733519,-0.054
7.0775069916100675,-0.061
7.0795045944866155,-0.062
7.0815021973631636,-0.063
7.083499800239712,-0.072
7.08549740311626,-0.073
7.087495005992808,-0.07
7.089492608869356,-0.07
7.091490211745904,-0.068
7.093487814622453,-0.059
7.095485417499001,-0.058
7.097483020375549,-0.062
7.099480623252097,-0.059
7.101478226128645,-0.059
7.103475829005193,-0.063
7.105473431881741,-0.065
7.107471034758289,-0.065
7.109468637634837,-0.064
7.111466240511386,-0.065
7.113463843387934,-0.063
7.115461446264482,-0.061
7.11745904914103,-0.058
7.119456652017578,-0.046
7.121454254894126,-0.048
7.123451857770674,-0.056
7.125449460647222,-0.052
7.12744706352377,-0.051
7.129444666400319,-0.056
7.131442269276867,-0.057
7.133439872153415,-0.059
7.135437475029963,-0.059
7.137435077906511,-0.054
7.1394326807830595,-0.053
7.1414302836596075,-0.05
7.143427886536156,-0.049
7.145425489412704,-0.05
7.1474230922892525,-0.049
7.149420695165801,-0.047
7.151418298042349,-0.049
7.153415900918897,-0.048
7.155413503795445,-0.042
7.157411106671993,-0.04
7.159408709548541,-0.042
7.161406312425089,-0.043
7.163403915301637,-0.05
7.165401518178186,-0.055
7.167399121054734,-0.054
7.169396723931282,-0.052
7.17139432680783,-0.053
7.173391929684378,-0.055
7.175389532560926,-0.056
7.177387135437474,-0.053
7.179384738314022,-0.048
7.18138234119057,-0.048
7.183379944067119,-0.047
7.185377546943667,-0.045
7.187375149820215,-0.046
7.189372752696763,-0.042
7.191370355573311,-0.042
7.193367958449859,-0.049
7.195365561326407,-0.05
7.197363164202955,-0.048
7.1993607670795035,-0.046
7.201358369956052,-0.044
7.2033559728326,-0.041
7.2053535757091485,-0.043
7.2073511785856965,-0.044
7.209348781462245,-0.041
7.211346384338793,-0.043
7.213343987215341,-0.042
7.215341590091889,-0.039
7.217339192968437,-0.037
7.219336795844986,-0.035
7.221334398721534,-0.043
7.223332001598082,-0.043
7.22532960447463,-0.042
7.227327207351178,-0.045
7.229324810227726,-0.035
7.231322413104274,-0.034
7.233320015980822,-0.034
7.23531761885737,-0.035
7.237315221733919,-0.032
7.239312824610467,-0.03
7.241310427487015,-0.031
7.243308030363563,-0.03
7.245305633240111,-0.033
7.247303236116659,-0.029
7.249300838993207,-0.025
7.251298441869755,-0.025
7.253296044746303,-0.03
7.255293647622852,-0.026
7.2572912504994,-0.018
7.259288853375948,-0.022
7.261286456252496,-0.032
7.263284059129044,-0.034
7.2652816620055924,-0.026
7.2672792648821405,-0.026
7.2692768677586885,-0.03
7.271274470635237,-0.03
7.2732720735117855,-0.025
7.2752696763883336,-0.021
7.277267279264882,-0.02
7.27926488214143,-0.024
7.281262485017978,-0.026
7.283260087894526,-0.021
7.285257690771074,-0.018
7.287255293647622,-0.019
7.28925289652417,-0.016
7.291250499400719,-0.012
7.293248102277267,-0.013
7.295245705153815,-0.021
7.297243308030363,-0.024
7.299240910906911,-0.021
7.301238513783459,-0.019
7.303236116660007,-0.014
7.305233719536555,-0.01
7.307231322413103,-0.009
7.309228925289652,-0.012
7.3112265281662,-0.014
7.313224131042748,-0.015
7.315221733919296,-0.011
7.317219336795844,-0.004
7.319216939672392,-0.003
7.32121454254894,-0.004
7.323212145425488,-0.006
7.325209748302036,-0.005
7.327207351178585,-0.003
7.329204954055133,-0.006
7.331202556931681,-0.012
7.3332001598082295,-0.013
7.3351977626847775,-0.011
7.337195365561326,-0.006
7.339192968437874,-0.002
7.341190571314422,0.005
7.34318817419097,0.004
7.345185777067519,-0.003
7.347183379944067,0.001
7.349180982820615,0.013
7.351178585697163,0.015
7.353176188573711,0.014
7.355173791450259,0.015
7.357171394326807,0.015
7.359168997203355,0.015
7.361166600079903,0.017
7.363164202956452,0.021
7.365161805833,0.021
7.367159408709548,0.032
7.369157011586096,0.031
7.371154614462644,0.026
7.373152217339192,0.027
7.37514982021574,0.024
7.377147423092288,0.034
7.379145025968836,0.036
7.381142628845385,0.034
7.383140231721933,0.039
7.385137834598481,0.041
7.387135437475029,0.04
7.389133040351577,0.044
7.391130643228125,0.051
7.3931282461046735,0.048
7.3951258489812215,0.049
7.3971234518577695,0.051
7.3991210547343185,0.05
7.4011186576108665,0.052
7.403116260487415,0.054
7.405113863363963,0.056
7.407111466240511,0.058
7.409109069117059,0.057
7.411106671993607,0.052
7.413104274870155,0.056
7.415101877746703,0.062
7.417099480623252,0.065
7.4190970834998,0.063
7.421094686376348,0.064
7.423092289252896,0.068
7.425089892129444,0.072
7.427087495005992,0.071
7.42908509788254,0.063
7.431082700759088,0.061
7.433080303635636,0.066
7.435077906512185,0.071
7.437075509388733,0.075
7.439073112265281,0.075
7.441070715141829,0.067
7.443068318018377,0.067
7.445065920894925,0.075
7.447063523771473,0.076
7.449061126648021,0.07
7.451058729524569,0.07
7.453056332401118,0.071
7.455053935277666,0.072
7.457051538154214,0.075
7.459049141030762,0.075
7.4610467439073105,0.074
7.4630443467838585,0.076
7.465041949660407,0.073
7.467039552536955,0.075
7.469037155413503,0.08
7.471034758290052,0.086
7.4730323611666,0.088
7.475029964043148,0.075
7.477027566919696,0.077
7.479025169796244,0.082
7.481022772672792,0.082
7.48302037554934,0.08
7.485017978425888,0.075
7.487015581302436,0.071
7.489013184178985,0.073
7.491010787055533,0.076
7.493008389932081,0.071
7.495005992808629,0.071
7.497003595685177,0.073
7.499001198561725,0.071
7.500998801438273,0.07
7.502996404314821,0.065
7.504994007191369,0.061
7.506991610067918,0.066
7.508989212944466,0.066
7.510986815821014,0.062
7.512984418697562,0.062
7.51498202157411,0.056
7.516979624450658,0.053
7.518977227327206,0.053
7.5209748302037545,0.045
7.5229724330803025,0.042
7.524970035956851,0.039
7.5269676388333995,0.039
7.5289652417099475,0.042
7.530962844586496,0.035
7.532960447463044,0.028
7.534958050339592,0.027
7.53695565321614,0.026
7.538953256092688,0.025
7.540950858969236,0.019
7.542948461845785,0.015
7.544946064722333,0.017
7.546943667598881,0.017
7.548941270475429,0.013
7.550938873351977,0.011
7.552936476228525,0.016
7.554934079105073,0.012
7.556931681981621,0.004
7.558929284858169,0.002
7.560926887734718,-0.005
7.562924490611266,-0.007
7.564922093487814,-0.002
7.566919696364362,-0.002
7.56891729924091,-0.011
7.570914902117458,-0.013
7.572912504994006,-0.019
7.574910107870554,-0.019
7.576907710747102,-0.018
7.578905313623651,-0.025
7.580902916500199,-0.025
7.582900519376747,-0.021
7.584898122253295,-0.025
7.5868957251298434,-0.026
7.5888933280063915,-0.029
7.5908909308829395,-0.033
7.592888533759488,-0.034
7.594886136636036,-0.035
7.5968837395125846,-0.034
7.598881342389133,-0.033
7.600878945265681,-0.032
7.602876548142229,-0.029
7.604874151018777,-0.035
7.606871753895325,-0.036
7.608869356771873,-0.032
7.610866959648421,-0.036
7.612864562524969,-0.041
7.614862165401518,-0.036
7.616859768278066,-0.037
7.618857371154614,-0.04
7.620854974031162,-0.043
7.62285257690771,-0.043
7.624850179784258,-0.038
7.626847782660806,-0.031
7.628845385537354,-0.031
7.630842988413902,-0.039
7.632840591290451,-0.041
7.634838194166999,-0.038
7.636835797043547,-0.037
7.638833399920095,-0.041
7.640831002796643,-0.043
7.642828605673191,-0.046
7.644826208549739,-0.043
7.646823811426287,-0.041
7.6488214143028355,-0.047
7.650819017179384,-0.048
7.652816620055932,-0.046
7.6548142229324805,-0.041
7.6568118258090285,-0.041
7.658809428685577,-0.038
7.660807031562125,-0.033
7.662804634438673,-0.034
7.664802237315221,-0.027
7.666799840191769,-0.032
7.668797443068318,-0.037
7.670795045944866,-0.038
7.672792648821414,-0.037
7.674790251697962,-0.036
7.67678785457451,-0.04
7.678785457451058,-0.034
7.680783060327606,-0.034
7.682780663204154,-0.039
7.684778266080702,-0.042
7.686775868957251,-0.036
7.688773471833799,-0.033
7.690771074710347,-0.037
7.692768677586895,-0.042
7.694766280463443,-0.039
7.696763883339991,-0.04
7.698761486216539,-0.042
7.700759089093087,-0.038
7.702756691969635,-0.032
7.704754294846184,-0.031
7.706751897722732,-0.038
7.70874950059928,-0.041
7.710747103475828,-0.04
7.712744706352376,-0.033
7.7147423092289245,-0.032
7.7167399121054725,-0.04
7.7187375149820205,-0.039
7.720735117858569,-0.036
7.7227327207351175,-0.036
7.724730323611666,-0.04
7.726727926488214,-0.041
7.728725529364762,-0.043
7.73072313224131,-0.05
7.732720735117858,-0.056
7.734718337994406,-0.052
7.736715940870954,-0.051
7.738713543747502,-0.051
7.740711146624051,-0.048
7.742708749500599,-0.043
7.744706352377147,-0.046
7.746703955253695,-0.044
7.748701558130243,-0.037
7.750699161006791,-0.042
7.752696763883339,-0.045
7.754694366759887,-0.04
7.756691969636435,-0.041
7.758689572512984,-0.043
7.760687175389532,-0.043
7.76268477826608,-0.043
7.764682381142628,-0.043
7.766679984019176,-0.043
7.768677586895724,-0.049
7.770675189772272,-0.05
7.77267279264882,-0.042
7.774670395525368,-0.04
7.7766679984019165,-0.043
7.778665601278465,-0.045
7.7806632041550134,-0.042
7.7826608070315615,-0.04
7.7846584099081095,-0.042
7.786656012784658,-0.044
7.788653615661206,-0.045
7.790651218537754,-0.044
7.792648821414302,-0.039
7.79464642429085,-0.037
7.796644027167399,-0.042
7.798641630043947,-0.042
7.800639232920495,-0.048
7.802636835797043,-0.049
7.804634438673591,-0.043
7.806632041550139,-0.041
7.808629644426687,-0.041
7.810627247303235,-0.04
7.812624850179783,-0.039
7.814622453056332,-0.044
7.81662005593288,-0.046
7.818617658809428,-0.043
7.820615261685976,-0.045
7.822612864562524,-0.046
7.824610467439072,-0.044
7.82660807031562,-0.036
7.828605673192168,-0.04
7.830603276068716,-0.036
7.832600878945265,-0.033
7.834598481821813,-0.038
7.836596084698361,-0.038
7.838593687574909,-0.042
7.840591290451457,-0.043
7.8425888933280055,-0.046
7.8445864962045535,-0.046
7.8465840990811015,-0.04
7.84858170195765,-0.048
7.8505793048341985,-0.046
7.852576907710747,-0.049
7.854574510587295,-0.049
7.856572113463843,-0.044
7.858569716340391,-0.047
7.860567319216939,-0.042
7.862564922093487,-0.045
7.864562524970035,-0.056
7.866560127846583,-0.052
7.868557730723132,-0.039
7.87055533359968,-0.043
7.872552936476228,-0.05
7.874550539352776,-0.048
7.876548142229324,-0.044
7.878545745105872,-0.048
7.88054334798242,-0.046
7.882540950858968,-0.037
7.884538553735516,-0.04
7.886536156612065,-0.042
7.888533759488613,-0.046
7.890531362365161,-0.053
7.892528965241709,-0.052
7.894526568118257,-0.046
7.896524170994805,-0.043
7.898521773871353,-0.045
7.900519376747901,-0.045
7.902516979624449,-0.046
7.904514582500998,-0.05
7.906512185377546,-0.053
7.9085097882540945,-0.051
7.9105073911306425,-0.044
7.9125049940071905,-0.041
7.914502596883739,-0.04
7.916500199760287,-0.04
7.918497802636835,-0.033
7.920495405513383,-0.037
7.922493008389932,-0.049
7.92449061126648,-0.05
7.926488214143028,-0.052
7.928485817019576,-0.05
7.930483419896124,-0.043
7.932481022772672,-0.045
7.93447862564922,-0.045
7.936476228525768,-0.046
7.938473831402316,-0.05
7.940471434278865,-0.048
7.942469037155413,-0.048
7.944466640031961,-0.047
7.946464242908509,-0.048
7.948461845785057,-0.047
7.950459448661605,-0.042
7.952457051538153,-0.042
7.954454654414701,-0.043
7.956452257291249,-0.046
7.958449860167798,-0.046
7.960447463044346,-0.048
7.962445065920894,-0.048
7.964442668797442,-0.046
7.96644027167399,-0.05
7.968437874550538,-0.05
7.9704354774270865,-0.051
7.9724330803036345,-0.054
7.9744306831801826,-0.054
7.9764282860567315,-0.053
7.9784258889332795,-0.052
7.980423491809828,-0.05
7.982421094686376,-0.05
7.984418697562924,-0.052
7.986416300439472,-0.049
7.98841390331602,-0.051
7.990411506192568,-0.051
7.992409109069116,-0.048
7.994406711945665,-0.043
7.996404314822213,-0.045
7.998401917698761,-0.049
8.000399520575309,-0.047
8.002397123451857,-0.049
8.004394726328405,-0.053
8.006392329204953,-0.056
8.008389932081501,-0.05
8.01038753495805,-0.055
8.012385137834597,-0.054
8.014382740711145,-0.048
8.016380343587693,-0.056
8.018377946464241,-0.051
8.020375549340791,-0.041
8.02237315221734,-0.04
8.024370755093887,-0.044
8.026368357970435,-0.049
8.028365960846983,-0.051
8.030363563723531,-0.051
8.03236116660008,-0.051
8.034358769476627,-0.051
8.036356372353175,-0.049
8.038353975229724,-0.051
8.040351578106272,-0.054
8.04234918098282,-0.054
8.044346783859368,-0.052
8.046344386735916,-0.048
8.048341989612464,-0.041
8.050339592489012,-0.041
8.05233719536556,-0.046
8.054334798242108,-0.048
8.056332401118658,-0.049
8.058330003995206,-0.051
8.060327606871754,-0.051
8.062325209748302,-0.051
8.06432281262485,-0.052
8.066320415501398,-0.051
8.068318018377946,-0.051
8.070315621254494,-0.051
8.072313224131042,-0.05
8.07431082700759,-0.052
8.076308429884138,-0.053
8.078306032760686,-0.055
8.080303635637234,-0.059
8.082301238513782,-0.059
8.08429884139033,-0.057
8.086296444266878,-0.058
8.088294047143426,-0.056
8.090291650019974,-0.053
8.092289252896524,-0.058
8.094286855773072,-0.058
8.09628445864962,-0.063
8.098282061526168,-0.06
8.100279664402716,-0.057
8.102277267279264,-0.062
8.104274870155812,-0.054
8.10627247303236,-0.054
8.108270075908909,-0.05
8.110267678785457,-0.046
8.112265281662005,-0.051
8.114262884538553,-0.051
8.1162604874151,-0.049
8.118258090291649,-0.048
8.120255693168197,-0.054
8.122253296044745,-0.051
8.124250898921293,-0.052
8.126248501797841,-0.054
8.12824610467439,-0.054
8.130243707550939,-0.057
8.132241310427487,-0.052
8.134238913304035,-0.05
8.136236516180583,-0.052
8.138234119057131,-0.051
8.140231721933679,-0.049
8.142229324810227,-0.048
8.144226927686775,-0.048
8.146224530563323,-0.048
8.148222133439871,-0.043
8.15021973631642,-0.033
8.152217339192967,-0.032
8.154214942069515,-0.038
8.156212544946063,-0.041
8.158210147822611,-0.044
8.16020775069916,-0.048
8.162205353575708,-0.048
8.164202956452257,-0.048
8.166200559328805,-0.048
8.168198162205353,-0.052
8.170195765081901,-0.051
8.17219336795845,-0.048
8.174190970834998,-0.05
8.176188573711546,-0.051
8.178186176588094,-0.051
8.180183779464642,-0.049
8.18218138234119,-0.046
8.184178985217738,-0.042
8.186176588094286,-0.043
8.188174190970834,-0.042
8.190171793847382,-0.041
8.19216939672393,-0.04
8.194166999600478,-0.035
8.196164602477026,-0.041
8.198162205353574,-0.043
8.200159808230122,-0.044
8.202157411106672,-0.04
8.20415501398322,-0.041
8.206152616859768,-0.048
8.208150219736316,-0.044
8.210147822612864,-0.043
8.212145425489412,-0.043
8.21414302836596,-0.041
8.216140631242508,-0.04
8.218138234119056,-0.037
8.220135836995604,-0.035
8.222133439872152,-0.034
8.2241310427487,-0.038
8.226128645625248,-0.04
8.228126248501797,-0.041
8.230123851378345,-0.043
8.232121454254893,-0.038
8.23411905713144,-0.034
8.236116660007989,-0.036
8.238114262884539,-0.04
8.240111865761087,-0.036
8.242109468637635,-0.038
8.244107071514183,-0.037
8.24610467439073,-0.033
8.248102277267279,-0.033
8.250099880143827,-0.036
8.252097483020375,-0.041
8.254095085896923,-0.041
8.256092688773471,-0.039
8.258090291650019,-0.036
8.260087894526567,-0.043
8.262085497403115,-0.041
8.264083100279663,-0.037
8.266080703156211,-0.041
8.26807830603276,-0.04
8.270075908909307,-0.04
8.272073511785855,-0.041
8.274071114662405,-0.038
8.276068717538953,-0.041
8.278066320415501,-0.046
8.28006392329205,-0.043
8.282061526168597,-0.044
8.284059129045145,-0.045
8.286056731921693,-0.044
8.288054334798241,-0.044
8.29005193767479,-0.043
8.292049540551337,-0.043
8.294047143427886,-0.045
8.296044746304434,-0.049
8.298042349180982,-0.047
8.30003995205753,-0.043
8.302037554934078,-0.035
8.304035157810626,-0.034
8.306032760687174,-0.034
8.308030363563722,-0.039
8.310027966440272,-0.043
8.31202556931682,-0.038
8.314023172193368,-0.034
8.316020775069916,-0.03
8.318018377946464,-0.03
8.320015980823012,-0.03
8.32201358369956,-0.031
8.324011186576108,-0.035
8.326008789452656,-0.036
8.328006392329204,-0.037
8.330003995205752,-0.038
8.3320015980823,-0.034
8.333999200958848,-0.035
8.335996803835396,-0.041
8.337994406711944,-0.036
8.339992009588492,-0.034
8.34198961246504,-0.029
8.343987215341588,-0.021
8.345984818218138,-0.018
8.347982421094686,-0.015
8.349980023971234,-0.018
8.351977626847782,-0.015
8.35397522972433,-0.011
8.355972832600878,-0.009
8.357970435477426,-0.009
8.359968038353975,-0.008
8.361965641230523,-0.009
8.36396324410707,-0.009
8.365960846983619,-0.009
8.367958449860167,-0.007
8.369956052736715,-0.006
8.371953655613263,-0.004
8.37395125848981,-0.006
8.375948861366359,-0.011
8.377946464242907,-0.001
8.379944067119455,0.003
8.381941669996005,0.003
8.383939272872553,0.003
8.3859368757491,0.004
8.387934478625649,0.006
8.389932081502197,0.005
8.391929684378745,0.009
8.393927287255293,0.007
8.395924890131841,0.009
8.397922493008389,0.018
8.399920095884937,0.018
8.401917698761485,0.023
8.403915301638033,0.024
8.405912904514581,0.018
8.40791050739113,0.015
8.409908110267677,0.015
8.411905713144225,0.016
8.413903316020773,0.015
8.415900918897322,0.014
8.417898521773871,0.013
8.41989612465042,0.015
8.421893727526967,0.018
8.423891330403515,0.015
8.425888933280063,0.008
8.427886536156612,0.009
8.42988413903316,0.006
8.431881741909708,0.004
8.433879344786256,0.007
8.435876947662804,0.006
8.437874550539352,0.002
8.4398721534159,-0.005
8.441869756292448,-0.013
8.443867359168996,-0.019
8.445864962045544,-0.017
8.447862564922092,-0.016
8.44986016779864,-0.024
8.451857770675188,-0.032
8.453855373551738,-0.034
8.455852976428286,-0.038
8.457850579304834,-0.037
8.459848182181382,-0.035
8.46184578505793,-0.041
8.463843387934478,-0.041
8.465840990811026,-0.041
8.467838593687574,-0.043
8.469836196564122,-0.043
8.47183379944067,-0.043
8.473831402317218,-0.039
8.475829005193766,-0.036
8.477826608070314,-0.04
8.479824210946862,-0.043
8.48182181382341,-0.045
8.483819416699959,-0.042
8.485817019576507,-0.043
8.487814622453055,-0.047
8.489812225329604,-0.043
8.491809828206152,-0.045
8.4938074310827,-0.047
8.495805033959249,-0.049
8.497802636835797,-0.049
8.499800239712345,-0.051
8.501797842588893,-0.052
8.50379544546544,-0.043
8.505793048341989,-0.04
8.507790651218537,-0.037
8.509788254095085,-0.042
8.511785856971633,-0.045
8.513783459848181,-0.04
8.515781062724729,-0.041
8.517778665601277,-0.037
8.519776268477825,-0.038
8.521773871354373,-0.041
8.523771474230921,-0.041
8.525769077107471,-0.043
8.527766679984019,-0.045
8.529764282860567,-0.042
8.531761885737115,-0.04
8.533759488613663,-0.043
8.535757091490211,-0.049
8.53775469436676,-0.051
8.539752297243307,-0.049
8.541749900119855,-0.043
8.543747502996403,-0.042
8.545745105872951,-0.043
8.5477427087495,-0.043
8.549740311626048,-0.045
8.551737914502596,-0.049
8.553735517379144,-0.043
8.555733120255692,-0.037
8.55773072313224,-0.039
8.559728326008788,-0.036
8.561725928885338,-0.029
8.563723531761886,-0.021
8.565721134638434,-0.018
8.567718737514982,-0.019
8.56971634039153,-0.021
8.571713943268078,-0.026
8.573711546144626,-0.03
8.575709149021174,-0.035
8.577706751897722,-0.035
8.57970435477427,-0.028
8.581701957650818,-0.019
8.583699560527366,-0.002
8.585697163403914,0.018
8.587694766280462,0.034
8.58969236915701,0.058
8.591689972033558,0.075
8.593687574910106,0.092
8.595685177786654,0.125
8.597682780663204,0.16
8.599680383539752,0.193
8.6016779864163,0.224
8.603675589292848,0.248
8.605673192169396,0.274
8.607670795045944,0.302
8.609668397922492,0.332
8.61166600079904,0.373
8.613663603675588,0.406
8.615661206552137,0.429
8.617658809428685,0.458
8.619656412305233,0.489
8.62165401518178,0.509
8.623651618058329,0.522
8.625649220934877,0.532
8.627646823811425,0.539
8.629644426687973,0.537
8.63164202956452,0.52
8.63363963244107,0.503
8.635637235317619,0.474
8.637634838194167,0.434
8.639632441070715,0.396
8.641630043947263,0.349
8.643627646823811,0.298
8.645625249700359,0.243
8.647622852576907,0.191
8.649620455453455,0.141
8.651618058330003,0.099
8.653615661206551,0.058
8.6556132640831,0.018
8.657610866959647,-0.011
8.659608469836195,-0.031
8.661606072712743,-0.024
8.663603675589291,-0.023
8.66560127846584,-0.032
8.667598881342387,-0.036
8.669596484218937,-0.045
8.671594087095485,-0.05
8.673591689972033,-0.056
8.675589292848581,-0.052
8.67758689572513,-0.057
8.679584498601677,-0.068
8.681582101478226,-0.07
8.683579704354774,-0.072
8.685577307231322,-0.071
8.68757491010787,-0.071
8.689572512984418,-0.074
8.691570115860966,-0.068
8.693567718737514,-0.064
8.695565321614062,-0.068
8.69756292449061,-0.063
8.699560527367158,-0.056
8.701558130243706,-0.052
8.703555733120254,-0.052
8.705553335996804,-0.053
8.707550938873352,-0.054
8.7095485417499,-0.054
8.711546144626448,-0.05
8.713543747502996,-0.044
8.715541350379544,-0.044
8.717538953256092,-0.041
8.71953655613264,-0.036
8.721534159009188,-0.04
8.723531761885736,-0.037
8.725529364762284,-0.035
8.727526967638832,-0.034
8.72952457051538,-0.033
8.731522173391928,-0.037
8.733519776268476,-0.039
8.735517379145024,-0.038
8.737514982021573,-0.036
8.73951258489812,-0.037
8.74151018777467,-0.041
8.743507790651218,-0.039
8.745505393527766,-0.036
8.747502996404315,-0.033
8.749500599280863,-0.032
8.75149820215741,-0.035
8.753495805033959,-0.036
8.755493407910507,-0.036
8.757491010787055,-0.035
8.759488613663603,-0.032
8.76148621654015,-0.033
8.763483819416699,-0.036
8.765481422293247,-0.034
8.767479025169795,-0.034
8.769476628046343,-0.035
8.771474230922891,-0.032
8.773471833799439,-0.033
8.775469436675987,-0.033
8.777467039552537,-0.034
8.779464642429085,-0.036
8.781462245305633,-0.034
8.783459848182181,-0.032
8.785457451058729,-0.032
8.787455053935277,-0.033
8.789452656811825,-0.029
8.791450259688373,-0.028
8.793447862564921,-0.025
8.79544546544147,-0.022
8.797443068318017,-0.025
8.799440671194565,-0.027
8.801438274071113,-0.026
8.803435876947661,-0.026
8.80543347982421,-0.024
8.807431082700758,-0.025
8.809428685577306,-0.027
8.811426288453854,-0.024
8.813423891330403,-0.025
8.815421494206952,-0.025
8.8174190970835,-0.024
8.819416699960048,-0.02
8.821414302836596,-0.021
8.823411905713144,-0.021
8.825409508589692,-0.019
8.82740711146624,-0.019
8.829404714342788,-0.023
8.831402317219336,-0.024
8.833399920095884,-0.021
8.835397522972432,-0.025
8.83739512584898,-0.027
8.839392728725528,-0.024
8.841390331602076,-0.023
8.843387934478624,-0.023
8.845385537355172,-0.022
8.84738314023172,-0.022
8.84938074310827,-0.021
8.851378345984818,-0.02
8.853375948861366,-0.021
8.855373551737914,-0.019
8.857371154614462,-0.021
8.85936875749101,-0.022
8.861366360367558,-0.022
8.863363963244106,-0.021
8.865361566120654,-0.019
8.867359168997202,-0.018
8.86935677187375,-0.016
8.871354374750299,-0.015
8.873351977626847,-0.009
8.875349580503395,-0.011
8.877347183379943,-0.008
8.87934478625649,-0.007
8.881342389133039,-0.015
8.883339992009587,-0.021
8.885337594886137,-0.026
8.887335197762685,-0.024
8.889332800639233,-0.021
8.89133040351578,-0.021
8.893328006392329,-0.021
8.895325609268877,-0.02
8.897323212145425,-0.02
8.899320815021973,-0.018
8.901318417898521,-0.017
8.903316020775069,-0.015
8.905313623651617,-0.013
8.907311226528165,-0.017
8.909308829404713,-0.016
8.911306432281261,-0.017
8.91330403515781,-0.015
8.915301638034357,-0.011
8.917299240910905,-0.012
8.919296843787453,-0.015
8.921294446664003,-0.018
8.923292049540551,-0.014
8.9252896524171,-0.012
8.927287255293647,-0.01
8.929284858170195,-0.014
8.931282461046743,-0.015
8.933280063923291,-0.014
8.93527766679984,-0.018
8.937275269676388,-0.012
8.939272872552936,-0.009
8.941270475429484,-0.008
8.943268078306032,-0.005
8.94526568118258,-0.009
8.947263284059128,-0.008
8.949260886935676,-0.005
8.951258489812224,-0.007
8.953256092688772,-0.007
8.95525369556532,-0.004
8.95725129844187,-0.005
8.959248901318418,-0.012
8.961246504194966,-0.013
8.963244107071514,-0.013
8.965241709948062,-0.012
8.96723931282461,-0.006
8.969236915701158,-0.005
8.971234518577706,-0.004
8.973232121454254,0.0
8.975229724330802,-0.001
8.97722732720735,-0.003
8.979224930083898,-0.002
8.981222532960446,-0.001
8.983220135836994,-0.003
8.985217738713542,0.0
8.98721534159009,0.001
8.989212944466638,0.001
8.991210547343186,0.004
8.993208150219736,0.005
8.995205753096284,0.009
8.997203355972832,0.011
8.99920095884938,0.005
9.001198561725928,0.004
9.003196164602477,0.008
9.005193767479025,0.007
9.007191370355573,0.007
9.00918897323212,0.006
9.011186576108669,0.004
9.013184178985217,0.005
9.015181781861765,0.005
9.017179384738313,0.005
9.01917698761486,0.008
9.021174590491409,0.006
9.023172193367957,0.009
9.025169796244505,0.015
9.027167399121053,0.014
9.029165001997601,0.017
9.031162604874151,0.023
9.033160207750699,0.024
9.035157810627247,0.022
9.037155413503795,0.021
9.039153016380343,0.023
9.041150619256891,0.021
9.04314822213344,0.022
9.045145825009987,0.024
9.047143427886535,0.025
9.049141030763083,0.028
9.051138633639631,0.029
9.05313623651618,0.032
9.055133839392727,0.032
9.057131442269275,0.036
9.059129045145824,0.037
9.061126648022372,0.038
9.06312425089892,0.042
9.065121853775468,0.043
9.067119456652017,0.044
9.069117059528566,0.043
9.071114662405114,0.041
9.073112265281662,0.043
9.07510986815821,0.045
9.077107471034758,0.044
9.079105073911306,0.046
9.081102676787854,0.049
9.083100279664402,0.048
9.08509788254095,0.05
9.087095485417498,0.054
9.089093088294046,0.054
9.091090691170594,0.056
9.093088294047142,0.058
9.09508589692369,0.057
9.097083499800238,0.055
9.099081102676786,0.061
9.101078705553334,0.065
9.103076308429884,0.066
9.105073911306432,0.069
9.10707151418298,0.071
9.109069117059528,0.076
9.111066719936076,0.079
9.113064322812624,0.076
9.115061925689172,0.08
9.11705952856572,0.082
9.119057131442268,0.078
9.121054734318816,0.08
9.123052337195364,0.076
9.125049940071913,0.075
9.12704754294846,0.077
9.129045145825009,0.081
9.131042748701557,0.084
9.133040351578105,0.079
9.135037954454653,0.077
9.1370355573312,0.08
9.13903316020775,0.084
9.141030763084299,0.085
9.143028365960847,0.083
9.145025968837395,0.086
9.147023571713943,0.087
9.14902117459049,0.085
9.151018777467039,0.082
9.153016380343587,0.086
9.155013983220135,0.09
9.157011586096683,0.089
9.159009188973231,0.085
9.161006791849779,0.082
9.163004394726327,0.083
9.165001997602875,0.086
9.166999600479423,0.087
9.168997203355971,0.082
9.17099480623252,0.079
9.172992409109067,0.081
9.174990011985617,0.081
9.176987614862165,0.079
9.178985217738713,0.084
9.180982820615261,0.086
9.18298042349181,0.08
9.184978026368357,0.079
9.186975629244905,0.08
9.188973232121453,0.079
9.190970834998001,0.077
9.19296843787455,0.076
9.194966040751098,0.075
9.196963643627646,0.073
9.198961246504194,0.071
9.200958849380742,0.07
9.20295645225729,0.068
9.204954055133838,0.068
9.206951658010386,0.065
9.208949260886934,0.064
9.210946863763484,0.062
9.212944466640032,0.059
9.21494206951658,0.059
9.216939672393128,0.05
9.218937275269676,0.046
9.220934878146224,0.051
9.222932481022772,0.048
9.22493008389932,0.044
9.226927686775868,0.043
9.228925289652416,0.042
9.230922892528964,0.038
9.232920495405512,0.033
9.23491809828206,0.029
9.236915701158608,0.031
9.238913304035156,0.03
9.240910906911704,0.025
9.242908509788252,0.024
9.2449061126648,0.025
9.24690371554135,0.022
9.248901318417898,0.018
9.250898921294446,0.018
9.252896524170994,0.017
9.254894127047542,0.011
9.25689172992409,0.009
9.258889332800639,0.007
9.260886935677187,0.005
9.262884538553735,0.005
9.264882141430283,0.007
9.26687974430683,0.007
9.268877347183379,0.005
9.270874950059927,0.001
9.272872552936475,-0.002
9.274870155813023,0.001
9.276867758689571,0.001
9.278865361566119,-0.003
9.280862964442667,-0.009
9.282860567319217,-0.009
9.284858170195765,-0.006
9.286855773072313,-0.006
9.288853375948861,-0.007
9.290850978825409,-0.009
9.292848581701957,-0.012
9.294846184578505,-0.013
9.296843787455053,-0.013
9.298841390331601,-0.009
9.30083899320815,-0.007
9.302836596084697,-0.009
9.304834198961245,-0.012
9.306831801837793,-0.013
9.308829404714341,-0.01
9.31082700759089,-0.005
9.312824610467437,-0.004
9.314822213343986,-0.009
9.316819816220534,-0.009
9.318817419097083,-0.012
9.320815021973631,-0.009
9.32281262485018,-0.005
9.324810227726728,-0.008
9.326807830603276,-0.009
9.328805433479824,-0.01
9.330803036356372,-0.015
9.33280063923292,-0.017
9.334798242109468,-0.017
9.336795844986016,-0.017
9.338793447862564,-0.015
9.340791050739112,-0.015
9.34278865361566,-0.018
9.344786256492208,-0.018
9.346783859368756,-0.02
9.348781462245304,-0.019
9.350779065121852,-0.018
9.3527766679984,-0.015
9.35477427087495,-0.014
9.356771873751498,-0.016
9.358769476628046,-0.017
9.360767079504594,-0.015
9.362764682381142,-0.013
9.36476228525769,-0.018
9.366759888134238,-0.02
9.368757491010786,-0.022
9.370755093887334,-0.025
9.372752696763882,-0.022
9.37475029964043,-0.022
9.376747902516978,-0.022
9.378745505393526,-0.025
9.380743108270075,-0.025
9.382740711146623,-0.025
9.38473831402317,-0.027
9.386735916899719,-0.025
9.388733519776267,-0.024
9.390731122652817,-0.021
9.392728725529365,-0.019
9.394726328405913,-0.018
9.39672393128246,-0.017
9.398721534159009,-0.018
9.400719137035557,-0.021
9.402716739912105,-0.02
9.404714342788653,-0.02
9.4067119456652,-0.022
9.408709548541749,-0.022
9.410707151418297,-0.021
9.412704754294845,-0.026
9.414702357171393,-0.025
9.416699960047941,-0.025
9.41869756292449,-0.026
9.420695165801037,-0.022
9.422692768677585,-0.022
9.424690371554133,-0.024
9.426687974430683,-0.027
9.428685577307231,-0.027
9.43068318018378,-0.025
9.432680783060327,-0.023
9.434678385936875,-0.022
9.436675988813423,-0.021
9.438673591689971,-0.021
9.44067119456652,-0.024
9.442668797443067,-0.029
9.444666400319615,-0.027
9.446664003196164,-0.028
9.448661606072712,-0.028
9.45065920894926,-0.025
9.452656811825808,-0.026
9.454654414702356,-0.025
9.456652017578904,-0.024
9.458649620455452,-0.02
9.460647223332,-0.02
9.46264482620855,-0.021
9.464642429085098,-0.021
9.466640031961646,-0.023
9.468637634838194,-0.023
9.470635237714742,-0.024
9.47263284059129,-0.026
9.474630443467838,-0.027
9.476628046344386,-0.026
9.478625649220934,-0.027
9.480623252097482,-0.029
9.48262085497403,-0.028
9.484618457850578,-0.035
9.486616060727126,-0.038
9.488613663603674,-0.036
9.490611266480222,-0.037
9.49260886935677,-0.035
9.494606472233318,-0.035
9.496604075109866,-0.033
9.498601677986416,-0.033
9.500599280862964,-0.029
9.502596883739512,-0.027
9.50459448661606,-0.029
9.506592089492608,-0.03
9.508589692369156,-0.029
9.510587295245704,-0.028
9.512584898122252,-0.024
9.5145825009988,-0.022
9.516580103875349,-0.026
9.518577706751897,-0.029
9.520575309628445,-0.029
9.522572912504993,-0.03
9.52457051538154,-0.029
9.526568118258089,-0.025
9.528565721134637,-0.025
9.530563324011185,-0.028
9.532560926887733,-0.028
9.534558529764283,-0.026
9.53655613264083,-0.025
9.538553735517379,-0.022
9.540551338393927,-0.018
9.542548941270475,-0.017
9.544546544147023,-0.019
9.546544147023571,-0.02
9.548541749900119,-0.019
9.550539352776667,-0.019
9.552536955653215,-0.018
9.554534558529763,-0.017
9.556532161406311,-0.018
9.55852976428286,-0.021
9.560527367159407,-0.019
9.562524970035955,-0.02
9.564522572912503,-0.018
9.566520175789051,-0.015
9.5685177786656,-0.011
9.57051538154215,-0.01
9.572512984418697,-0.018
9.574510587295245,-0.025
9.576508190171793,-0.022
9.578505793048341,-0.02
9.58050339592489,-0.019
9.582500998801438,-0.02
9.584498601677986,-0.024
9.586496204554534,-0.022
9.588493807431082,-0.019
9.59049141030763,-0.024
9.592489013184178,-0.025
