Time,I
0.0,0.0019976028765481
0.001,0.0039952057530962
0.002,0.0059928086296444
0.003,0.0079904115061925
0.004,0.0099880143827407
0.005,0.0119856172592888
0.006,0.0139832201358369
0.007,0.0159808230123851
0.008,0.0179784258889332
0.009000000000000001,0.0199760287654814
0.01,0.0219736316420295
0.011,0.0239712345185777
0.012,0.0259688373951258
0.013000000000000001,0.0279664402716739
0.014,0.0299640431482221
0.015,0.0319616460247702
0.016,0.0339592489013184
0.017,0.0359568517778665
0.018000000000000002,0.0379544546544147
0.019,0.0399520575309628
0.02,0.0419496604075109
0.021,0.0439472632840591
0.022,0.0459448661606072
0.023,0.0479424690371554
0.024,0.0499400719137035
0.025,0.0519376747902516
0.026000000000000002,0.0539352776667998
0.027,0.0559328805433479
0.028,0.0579304834198961
0.029,0.0599280862964442
0.03,0.0619256891729924
0.031,0.0639232920495405
0.032,0.0659208949260886
0.033,0.0679184978026368
0.034,0.0699161006791849
0.035,0.0719137035557331
0.036000000000000004,0.0739113064322812
0.037,0.0759089093088294
0.038,0.0779065121853775
0.039,0.0799041150619256
0.04,0.0819017179384738
0.041,0.0838993208150219
0.042,0.0858969236915701
0.043000000000000003,0.0878945265681182
0.044,0.0898921294446663
0.045,0.0918897323212145
0.046,0.0938873351977626
0.047,0.0958849380743108
0.048,0.0978825409508589
0.049,0.0998801438274071
0.05,0.1018777467039552
0.051000000000000004,0.1038753495805033
0.052000000000000005,0.1058729524570515
0.053,0.1078705553335996
0.054,0.1098681582101478
0.055,0.1118657610866959
0.056,0.113863363963244
0.057,0.1158609668397922
0.058,0.1178585697163403
0.059000000000000004,0.1198561725928885
0.06,0.1218537754694366
0.061,0.1238513783459848
0.062,0.1258489812225329
0.063,0.1278465840990811
0.064,0.1298441869756292
0.065,0.1318417898521773
0.066,0.1338393927287255
0.067,0.1358369956052736
0.068,0.1378345984818218
0.069,0.1398322013583699
0.07,0.1418298042349181
0.07100000000000001,0.1438274071114662
0.07200000000000001,0.1458250099880143
0.073,0.1478226128645625
0.074,0.1498202157411106
0.075,0.1518178186176588
0.076,0.1538154214942069
0.077,0.1558130243707551
0.078,0.1578106272473032
0.079,0.1598082301238513
0.08,0.1618058330003995
0.081,0.1638034358769476
0.082,0.1658010387534957
0.083,0.1677986416300439
0.084,0.169796244506592
0.085,0.1717938473831402
0.08600000000000001,0.1737914502596883
0.08700000000000001,0.1757890531362365
0.088,0.1777866560127846
0.089,0.1797842588893327
0.09,0.1817818617658809
0.091,0.183779464642429
0.092,0.1857770675189772
0.093,0.1877746703955253
0.094,0.1897722732720735
0.095,0.1917698761486216
0.096,0.1937674790251697
0.097,0.1957650819017179
0.098,0.197762684778266
0.099,0.1997602876548142
0.1,0.2017578905313623
0.101,0.2037554934079105
0.10200000000000001,0.2057530962844586
0.10300000000000001,0.2077506991610067
0.10400000000000001,0.2097483020375549
0.105,0.211745904914103
0.106,0.2137435077906512
0.107,0.2157411106671993
0.108,0.2177387135437475
0.109,0.2197363164202956
0.11,0.2217339192968437
0.111,0.2237315221733919
0.112,0.22572912504994
0.113,0.2277267279264881
0.114,0.2297243308030363
0.115,0.2317219336795844
0.116,0.2337195365561326
0.117,0.2357171394326807
0.11800000000000001,0.2377147423092289
0.11900000000000001,0.239712345185777
0.12,0.2417099480623251
0.121,0.2437075509388733
0.122,0.2457051538154214
0.123,0.2477027566919696
0.124,0.2497003595685177
0.125,0.2516979624450658
0.126,0.253695565321614
0.127,0.2556931681981622
0.128,0.2576907710747103
0.129,0.2596883739512585
0.13,0.2616859768278066
0.131,0.2636835797043547
0.132,0.2656811825809029
0.133,0.267678785457451
0.134,0.2696763883339991
0.135,0.2716739912105473
0.136,0.2736715940870954
0.137,0.2756691969636436
0.138,0.2776667998401917
0.139,0.2796644027167398
0.14,0.281662005593288
0.14100000000000001,0.2836596084698362
0.14200000000000002,0.2856572113463843
0.14300000000000002,0.2876548142229324
0.14400000000000002,0.2896524170994806
0.145,0.2916500199760287
0.146,0.2936476228525769
0.147,0.295645225729125
0.148,0.2976428286056731
0.149,0.2996404314822213
0.15,0.3016380343587694
0.151,0.3036356372353176
0.152,0.3056332401118657
0.153,0.3076308429884138
0.154,0.309628445864962
0.155,0.3116260487415102
0.156,0.3136236516180583
0.157,0.3156212544946064
0.158,0.3176188573711546
0.159,0.3196164602477027
0.16,0.3216140631242509
0.161,0.323611666000799
0.162,0.3256092688773471
0.163,0.3276068717538953
0.164,0.3296044746304434
0.165,0.3316020775069915
0.166,0.3335996803835397
0.167,0.3355972832600878
0.168,0.337594886136636
0.169,0.3395924890131841
0.17,0.3415900918897323
0.171,0.3435876947662804
0.17200000000000001,0.3455852976428286
0.17300000000000001,0.3475829005193767
0.17400000000000002,0.3495805033959248
0.17500000000000002,0.351578106272473
0.176,0.3535757091490211
0.177,0.3555733120255693
0.178,0.3575709149021174
0.179,0.3595685177786655
0.18,0.3615661206552137
0.181,0.3635637235317618
0.182,0.36556132640831
0.183,0.3675589292848581
0.184,0.3695565321614062
0.185,0.3715541350379544
0.186,0.3735517379145026
0.187,0.3755493407910507
0.188,0.3775469436675988
0.189,0.379544546544147
0.19,0.3815421494206951
0.191,0.3835397522972432
0.192,0.3855373551737914
0.193,0.3875349580503395
0.194,0.3895325609268877
0.195,0.3915301638034358
0.196,0.3935277666799839
0.197,0.3955253695565321
0.198,0.3975229724330802
0.199,0.3995205753096284
0.2,0.4015181781861765
0.201,0.4035157810627247
0.202,0.4055133839392728
0.203,0.407510986815821
0.20400000000000001,0.4095085896923691
0.20500000000000002,0.4115061925689172
0.20600000000000002,0.4135037954454654
0.20700000000000002,0.4155013983220135
0.20800000000000002,0.4174990011985617
0.209,0.4194966040751098
0.21,0.4214942069516579
0.211,0.4234918098282061
0.212,0.4254894127047542
0.213,0.4274870155813024
0.214,0.4294846184578505
0.215,0.4314822213343987
0.216,0.4334798242109468
0.217,0.435477427087495
0.218,0.4374750299640431
0.219,0.4394726328405912
0.22,0.4414702357171394
0.221,0.4434678385936875
0.222,0.4454654414702356
0.223,0.4474630443467838
0.224,0.4494606472233319
0.225,0.4514582500998801
0.226,0.4534558529764282
0.227,0.4554534558529763
0.228,0.4574510587295245
0.229,0.4594486616060727
0.23,0.4614462644826208
0.231,0.4634438673591689
0.232,0.4654414702357171
0.233,0.4674390731122652
0.234,0.4694366759888134
0.23500000000000001,0.4714342788653615
0.23600000000000002,0.4734318817419096
0.23700000000000002,0.4754294846184578
0.23800000000000002,0.4774270874950059
0.23900000000000002,0.4794246903715541
0.24,0.4814222932481022
0.241,0.4834198961246503
0.242,0.4854174990011985
0.243,0.4874151018777466
0.244,0.4894127047542947
0.245,0.4914103076308429
0.246,0.4934079105073911
0.247,0.4954055133839392
0.248,0.4974031162604874
0.249,0.4994007191370355
0.25,0.5013983220135837
0.251,0.5033959248901317
0.252,0.5053935277666799
0.253,0.507391130643228
0.254,0.5093887335197762
0.255,0.5113863363963244
0.256,0.5133839392728725
0.257,0.5153815421494207
0.258,0.5173791450259688
0.259,0.519376747902517
0.26,0.521374350779065
0.261,0.5233719536556132
0.262,0.5253695565321613
0.263,0.5273671594087095
0.264,0.5293647622852576
0.265,0.5313623651618058
0.266,0.533359968038354
0.267,0.5353575709149021
0.268,0.5373551737914503
0.269,0.5393527766679983
0.27,0.5413503795445465
0.271,0.5433479824210946
0.272,0.5453455852976428
0.273,0.5473431881741909
0.274,0.5493407910507391
0.275,0.5513383939272872
0.276,0.5533359968038354
0.277,0.5553335996803835
0.278,0.5573312025569316
0.279,0.5593288054334797
0.28,0.5613264083100279
0.281,0.563324011186576
0.28200000000000003,0.5653216140631242
0.28300000000000003,0.5673192169396724
0.28400000000000003,0.5693168198162205
0.28500000000000003,0.5713144226927687
0.28600000000000003,0.5733120255693167
0.28700000000000003,0.5753096284458649
0.28800000000000003,0.577307231322413
0.289,0.5793048341989612
0.29,0.5813024370755093
0.291,0.5833000399520575
0.292,0.5852976428286056
0.293,0.5872952457051538
0.294,0.589292848581702
0.295,0.59129045145825
0.296,0.5932880543347981
0.297,0.5952856572113463
0.298,0.5972832600878945
0.299,0.5992808629644426
0.3,0.6012784658409908
0.301,0.6032760687175389
0.302,0.6052736715940871
0.303,0.6072712744706352
0.304,0.6092688773471833
0.305,0.6112664802237314
0.306,0.6132640831002796
0.307,0.6152616859768277
0.308,0.6172592888533759
0.309,0.619256891729924
0.31,0.6212544946064722
0.311,0.6232520974830204
0.312,0.6252497003595685
0.313,0.6272473032361165
0.314,0.6292449061126647
0.315,0.6312425089892129
0.316,0.633240111865761
0.317,0.6352377147423092
0.318,0.6372353176188573
0.319,0.6392329204954055
0.32,0.6412305233719536
0.321,0.6432281262485018
0.322,0.6452257291250498
0.323,0.647223332001598
0.324,0.6492209348781461
0.325,0.6512185377546943
0.326,0.6532161406312424
0.327,0.6552137435077906
0.328,0.6572113463843388
0.329,0.6592089492608869
0.33,0.6612065521374351
0.331,0.6632041550139831
0.332,0.6652017578905313
0.333,0.6671993607670794
0.334,0.6691969636436276
0.335,0.6711945665201757
0.336,0.6731921693967239
0.337,0.675189772273272
0.338,0.6771873751498202
0.339,0.6791849780263682
0.34,0.6811825809029164
0.341,0.6831801837794645
0.342,0.6851777866560127
0.343,0.6871753895325609
0.34400000000000003,0.689172992409109
0.34500000000000003,0.6911705952856572
0.34600000000000003,0.6931681981622053
0.34700000000000003,0.6951658010387535
0.34800000000000003,0.6971634039153015
0.34900000000000003,0.6991610067918497
0.35000000000000003,0.7011586096683978
0.35100000000000003,0.703156212544946
0.352,0.7051538154214941
0.353,0.7071514182980423
0.354,0.7091490211745904
0.355,0.7111466240511386
0.356,0.7131442269276868
0.357,0.7151418298042348
0.358,0.717139432680783
0.359,0.7191370355573311
0.36,0.7211346384338793
0.361,0.7231322413104274
0.362,0.7251298441869756
0.363,0.7271274470635237
0.364,0.7291250499400719
0.365,0.73112265281662
0.366,0.7331202556931681
0.367,0.7351178585697162
0.368,0.7371154614462644
0.369,0.7391130643228125
0.37,0.7411106671993607
0.371,0.7431082700759088
0.372,0.745105872952457
0.373,0.7471034758290052
0.374,0.7491010787055533
0.375,0.7510986815821014
0.376,0.7530962844586495
0.377,0.7550938873351977
0.378,0.7570914902117458
0.379,0.759089093088294
0.38,0.7610866959648421
0.381,0.7630842988413903
0.382,0.7650819017179384
0.383,0.7670795045944865
0.384,0.7690771074710346
0.385,0.7710747103475828
0.386,0.773072313224131
0.387,0.7750699161006791
0.388,0.7770675189772273
0.389,0.7790651218537754
0.39,0.7810627247303236
0.391,0.7830603276068717
0.392,0.7850579304834198
0.393,0.7870555333599679
0.394,0.7890531362365161
0.395,0.7910507391130642
0.396,0.7930483419896124
0.397,0.7950459448661605
0.398,0.7970435477427087
0.399,0.7990411506192568
0.4,0.801038753495805
0.401,0.803036356372353
0.402,0.8050339592489012
0.403,0.8070315621254494
0.404,0.8090291650019975
0.405,0.8110267678785457
0.406,0.8130243707550938
0.40700000000000003,0.815021973631642
0.40800000000000003,0.8170195765081901
0.40900000000000003,0.8190171793847383
0.41000000000000003,0.8210147822612863
0.41100000000000003,0.8230123851378345
0.41200000000000003,0.8250099880143826
0.41300000000000003,0.8270075908909308
0.41400000000000003,0.8290051937674789
0.41500000000000004,0.8310027966440271
0.41600000000000004,0.8330003995205753
0.417,0.8349980023971234
0.418,0.8369956052736716
0.419,0.8389932081502196
0.42,0.8409908110267678
0.421,0.8429884139033159
0.422,0.8449860167798641
0.423,0.8469836196564122
0.424,0.8489812225329604
0.425,0.8509788254095085
0.426,0.8529764282860567
0.427,0.8549740311626048
0.428,0.8569716340391529
0.429,0.858969236915701
0.43,0.8609668397922492
0.431,0.8629644426687973
0.432,0.8649620455453455
0.433,0.8669596484218937
0.434,0.8689572512984418
0.435,0.87095485417499
0.436,0.872952457051538
0.437,0.8749500599280862
0.438,0.8769476628046343
0.439,0.8789452656811825
0.44,0.8809428685577306
0.441,0.8829404714342788
0.442,0.8849380743108269
0.443,0.8869356771873751
0.444,0.8889332800639232
0.445,0.8909308829404713
0.446,0.8929284858170194
0.447,0.8949260886935676
0.448,0.8969236915701158
0.449,0.8989212944466639
0.45,0.900918897323212
0.451,0.9029165001997602
0.452,0.9049141030763084
0.453,0.9069117059528564
0.454,0.9089093088294046
0.455,0.9109069117059528
0.456,0.9129045145825008
0.457,0.914902117459049
0.458,0.9168997203355972
0.459,0.9188973232121452
0.46,0.9208949260886936
0.461,0.9228925289652417
0.462,0.9248901318417898
0.463,0.926887734718338
0.464,0.928885337594886
0.465,0.9308829404714342
0.466,0.9328805433479824
0.467,0.9348781462245304
0.468,0.9368757491010786
0.46900000000000003,0.9388733519776268
0.47000000000000003,0.9408709548541748
0.47100000000000003,0.9428685577307232
0.47200000000000003,0.9448661606072712
0.47300000000000003,0.9468637634838192
0.47400000000000003,0.9488613663603674
0.47500000000000003,0.9508589692369156
0.47600000000000003,0.9528565721134638
0.47700000000000004,0.954854174990012
0.47800000000000004,0.95685177786656
0.47900000000000004,0.9588493807431082
0.48,0.9608469836196564
0.481,0.9628445864962044
0.482,0.9648421893727526
0.483,0.9668397922493008
0.484,0.9688373951258488
0.485,0.970834998002397
0.486,0.9728326008789452
0.487,0.9748302037554932
0.488,0.9768278066320416
0.489,0.9788254095085897
0.49,0.9808230123851376
0.491,0.9828206152616858
0.492,0.984818218138234
0.493,0.9868158210147822
0.494,0.9888134238913304
0.495,0.9908110267678784
0.496,0.9928086296444266
0.497,0.9948062325209748
0.498,0.9968038353975228
0.499,0.998801438274071
0.5,1.0007990411506191
0.501,1.0027966440271674
0.502,1.0047942469037154
0.503,1.0067918497802637
0.504,1.0087894526568115
0.505,1.0107870555333598
0.506,1.012784658409908
0.507,1.014782261286456
0.508,1.0167798641630044
0.509,1.0187774670395524
0.51,1.020775069916101
0.511,1.0227726727926487
0.512,1.0247702756691968
0.513,1.026767878545745
0.514,1.028765481422293
0.515,1.0307630842988411
0.516,1.0327606871753894
0.517,1.0347582900519376
0.518,1.0367558929284857
0.519,1.038753495805034
0.52,1.040751098681582
0.521,1.04274870155813
0.522,1.0447463044346783
0.523,1.0467439073112264
0.524,1.0487415101877746
0.525,1.0507391130643229
0.526,1.052736715940871
0.527,1.054734318817419
0.528,1.0567319216939672
0.529,1.0587295245705153
0.53,1.060727127447063
0.531,1.0627247303236116
0.532,1.0647223332001596
0.533,1.066719936076708
0.534,1.068717538953256
0.535,1.0707151418298042
0.536,1.0727127447063525
0.537,1.0747103475829003
0.538,1.0767079504594486
0.539,1.0787055533359966
0.54,1.0807031562125449
0.541,1.082700759089093
0.542,1.0846983619656412
0.543,1.0866959648421892
0.544,1.0886935677187377
0.545,1.0906911705952855
0.546,1.0926887734718338
0.547,1.0946863763483818
0.548,1.09668397922493
0.549,1.098681582101478
0.55,1.1006791849780262
0.551,1.1026767878545745
0.552,1.1046743907311225
0.553,1.1066719936076708
0.554,1.1086695964842188
0.555,1.110667199360767
0.556,1.1126648022373151
0.557,1.1146624051138632
0.558,1.1166600079904114
0.559,1.1186576108669597
0.56,1.1206552137435075
0.561,1.1226528166200558
0.562,1.124650419496604
0.5630000000000001,1.126648022373152
0.5640000000000001,1.1286456252497
0.5650000000000001,1.1306432281262484
0.5660000000000001,1.1326408310027964
0.5670000000000001,1.1346384338793447
0.5680000000000001,1.1366360367558928
0.5690000000000001,1.138633639632441
0.5700000000000001,1.140631242508989
0.5710000000000001,1.142628845385537
0.5720000000000001,1.1446264482620854
0.5730000000000001,1.1466240511386334
0.5740000000000001,1.1486216540151817
0.5750000000000001,1.1506192568917295
0.5760000000000001,1.152616859768278
0.577,1.154614462644826
0.578,1.1566120655213743
0.579,1.1586096683979223
0.58,1.1606072712744706
0.581,1.1626048741510189
0.582,1.1646024770275667
0.583,1.166600079904115
0.584,1.168597682780663
0.585,1.1705952856572113
0.586,1.172592888533759
0.587,1.1745904914103076
0.588,1.1765880942868556
0.589,1.178585697163404
0.59,1.180583300039952
0.591,1.1825809029165
0.592,1.1845785057930482
0.593,1.1865761086695965
0.594,1.1885737115461446
0.595,1.1905713144226926
0.596,1.1925689172992409
0.597,1.194566520175789
0.598,1.1965641230523372
0.599,1.1985617259288852
0.6,1.2005593288054333
0.601,1.2025569316819815
0.602,1.2045545345585296
0.603,1.2065521374350778
0.604,1.208549740311626
0.605,1.210547343188174
0.606,1.2125449460647222
0.607,1.2145425489412705
0.608,1.2165401518178185
0.609,1.2185377546943663
0.61,1.2205353575709148
0.611,1.2225329604474628
0.612,1.2245305633240111
0.613,1.2265281662005592
0.614,1.2285257690771074
0.615,1.2305233719536557
0.616,1.2325209748302035
0.617,1.2345185777067518
0.618,1.2365161805832998
0.619,1.238513783459848
0.62,1.240511386336396
0.621,1.2425089892129444
0.622,1.2445065920894924
0.623,1.2465041949660407
0.624,1.2485017978425887
0.625,1.250499400719137
0.626,1.252497003595685
0.627,1.254494606472233
0.628,1.2564922093487814
0.629,1.2584898122253294
0.63,1.2604874151018777
0.631,1.2624850179784255
0.632,1.264482620854974
0.633,1.266480223731522
0.634,1.2684778266080703
0.635,1.2704754294846183
0.636,1.2724730323611664
0.637,1.2744706352377146
0.638,1.276468238114263
0.639,1.278465840990811
0.64,1.280463443867359
0.641,1.2824610467439073
0.642,1.2844586496204553
0.643,1.2864562524970036
0.644,1.2884538553735516
0.645,1.2904514582500997
0.646,1.292449061126648
0.647,1.294446664003196
0.648,1.2964442668797442
0.649,1.2984418697562925
0.65,1.3004394726328403
0.651,1.3024370755093886
0.652,1.3044346783859369
0.653,1.306432281262485
0.654,1.308429884139033
0.655,1.3104274870155812
0.656,1.3124250898921292
0.657,1.3144226927686775
0.658,1.3164202956452256
0.659,1.3184178985217738
0.66,1.320415501398322
0.661,1.32241310427487
0.662,1.3244107071514182
0.663,1.3264083100279662
0.664,1.3284059129045145
0.665,1.3304035157810623
0.666,1.3324011186576108
0.667,1.3343987215341588
0.668,1.336396324410707
0.669,1.3383939272872551
0.67,1.3403915301638032
0.671,1.3423891330403517
0.672,1.3443867359168995
0.673,1.3463843387934478
0.674,1.3483819416699958
0.675,1.350379544546544
0.676,1.352377147423092
0.677,1.3543747502996404
0.678,1.3563723531761884
0.679,1.3583699560527365
0.68,1.3603675589292847
0.681,1.3623651618058328
0.682,1.364362764682381
0.683,1.366360367558929
0.684,1.3683579704354774
0.685,1.3703555733120254
0.686,1.3723531761885737
0.687,1.3743507790651217
0.6880000000000001,1.3763483819416698
0.6890000000000001,1.378345984818218
0.6900000000000001,1.380343587694766
0.6910000000000001,1.3823411905713143
0.6920000000000001,1.3843387934478624
0.6930000000000001,1.3863363963244106
0.6940000000000001,1.388333999200959
0.6950000000000001,1.390331602077507
0.6960000000000001,1.392329204954055
0.6970000000000001,1.394326807830603
0.6980000000000001,1.3963244107071513
0.6990000000000001,1.3983220135836991
0.7000000000000001,1.4003196164602476
0.7010000000000001,1.4023172193367957
0.7020000000000001,1.404314822213344
0.7030000000000001,1.406312425089892
0.704,1.4083100279664402
0.705,1.4103076308429885
0.706,1.4123052337195363
0.707,1.4143028365960846
0.708,1.4163004394726326
0.709,1.4182980423491809
0.71,1.420295645225729
0.711,1.4222932481022772
0.712,1.4242908509788252
0.713,1.4262884538553735
0.714,1.4282860567319215
0.715,1.4302836596084696
0.716,1.432281262485018
0.717,1.434278865361566
0.718,1.4362764682381142
0.719,1.4382740711146622
0.72,1.4402716739912105
0.721,1.4422692768677583
0.722,1.4442668797443068
0.723,1.4462644826208548
0.724,1.4482620854974029
0.725,1.4502596883739511
0.726,1.4522572912504992
0.727,1.4542548941270474
0.728,1.4562524970035955
0.729,1.4582500998801438
0.73,1.4602477027566918
0.731,1.46224530563324
0.732,1.464242908509788
0.733,1.4662405113863362
0.734,1.4682381142628844
0.735,1.4702357171394325
0.736,1.4722333200159807
0.737,1.4742309228925288
0.738,1.476228525769077
0.739,1.478226128645625
0.74,1.4802237315221731
0.741,1.4822213343987214
0.742,1.4842189372752694
0.743,1.4862165401518177
0.744,1.4882141430283655
0.745,1.490211745904914
0.746,1.492209348781462
0.747,1.4942069516580103
0.748,1.4962045545345584
0.749,1.4982021574111066
0.75,1.500199760287655
0.751,1.5021973631642027
0.752,1.504194966040751
0.753,1.506192568917299
0.754,1.5081901717938473
0.755,1.5101877746703951
0.756,1.5121853775469436
0.757,1.5141829804234916
0.758,1.51618058330004
0.759,1.518178186176588
0.76,1.520175789053136
0.761,1.5221733919296845
0.762,1.5241709948062323
0.763,1.5261685976827806
0.764,1.5281662005593286
0.765,1.5301638034358769
0.766,1.532161406312425
0.767,1.534159009188973
0.768,1.5361566120655212
0.769,1.5381542149420693
0.77,1.5401518178186175
0.771,1.5421494206951656
0.772,1.544147023571714
0.773,1.546144626448262
0.774,1.5481422293248102
0.775,1.5501398322013582
0.776,1.5521374350779062
0.777,1.5541350379544543
0.778,1.5561326408310026
0.779,1.5581302437075508
0.78,1.5601278465840989
0.781,1.5621254494606471
0.782,1.5641230523371952
0.783,1.5661206552137434
0.784,1.5681182580902917
0.785,1.5701158609668395
0.786,1.5721134638433878
0.787,1.5741110667199358
0.788,1.576108669596484
0.789,1.578106272473032
0.79,1.5801038753495804
0.791,1.5821014782261285
0.792,1.5840990811026767
0.793,1.5860966839792248
0.794,1.5880942868557728
0.795,1.590091889732321
0.796,1.5920894926088691
0.797,1.5940870954854174
0.798,1.5960846983619654
0.799,1.5980823012385137
0.8,1.6000799041150615
0.801,1.60207750699161
0.802,1.604075109868158
0.803,1.606072712744706
0.804,1.6080703156212544
0.805,1.6100679184978024
0.806,1.6120655213743509
0.807,1.6140631242508987
0.808,1.616060727127447
0.809,1.618058330003995
0.81,1.6200559328805433
0.811,1.622053535757091
0.812,1.6240511386336394
0.8130000000000001,1.6260487415101876
0.8140000000000001,1.6280463443867357
0.8150000000000001,1.630043947263284
0.8160000000000001,1.632041550139832
0.8170000000000001,1.6340391530163805
0.8180000000000001,1.6360367558929283
0.8190000000000001,1.6380343587694766
0.8200000000000001,1.6400319616460246
0.8210000000000001,1.6420295645225726
0.8220000000000001,1.644027167399121
0.8230000000000001,1.646024770275669
0.8240000000000001,1.6480223731522172
0.8250000000000001,1.6500199760287653
0.8260000000000001,1.6520175789053135
0.8270000000000001,1.6540151817818616
0.8280000000000001,1.6560127846584098
0.8290000000000001,1.658010387534958
0.8300000000000001,1.660007990411506
0.8310000000000001,1.6620055932880542
0.8320000000000001,1.6640031961646022
0.833,1.6660007990411505
0.834,1.6679984019176983
0.835,1.6699960047942468
0.836,1.6719936076707949
0.837,1.6739912105473431
0.838,1.6759888134238912
0.839,1.6779864163004392
0.84,1.6799840191769877
0.841,1.6819816220535355
0.842,1.6839792249300838
0.843,1.6859768278066318
0.844,1.68797443068318
0.845,1.689972033559728
0.846,1.6919696364362764
0.847,1.6939672393128244
0.848,1.6959648421893725
0.849,1.6979624450659208
0.85,1.6999600479424688
0.851,1.701957650819017
0.852,1.703955253695565
0.853,1.7059528565721134
0.854,1.7079504594486614
0.855,1.7099480623252097
0.856,1.7119456652017575
0.857,1.7139432680783058
0.858,1.715940870954854
0.859,1.717938473831402
0.86,1.7199360767079503
0.861,1.7219336795844984
0.862,1.7239312824610469
0.863,1.7259288853375947
0.864,1.727926488214143
0.865,1.729924091090691
0.866,1.731921693967239
0.867,1.733919296843787
0.868,1.7359168997203354
0.869,1.7379145025968836
0.87,1.7399121054734317
0.871,1.74190970834998
0.872,1.743907311226528
0.873,1.745904914103076
0.874,1.7479025169796245
0.875,1.7499001198561723
0.876,1.7518977227327206
0.877,1.7538953256092686
0.878,1.755892928485817
0.879,1.757890531362365
0.88,1.7598881342389132
0.881,1.7618857371154613
0.882,1.7638833399920093
0.883,1.7658809428685576
0.884,1.7678785457451056
0.885,1.769876148621654
0.886,1.771873751498202
0.887,1.7738713543747502
0.888,1.7758689572512982
0.889,1.7778665601278465
0.89,1.7798641630043943
0.891,1.7818617658809426
0.892,1.7838593687574908
0.893,1.785856971634039
0.894,1.7878545745105872
0.895,1.7898521773871352
0.896,1.7918497802636837
0.897,1.7938473831402315
0.898,1.7958449860167798
0.899,1.7978425888933278
0.9,1.799840191769876
0.901,1.801837794646424
0.902,1.803835397522972
0.903,1.8058330003995204
0.904,1.8078306032760685
0.905,1.8098282061526167
0.906,1.8118258090291648
0.907,1.813823411905713
0.908,1.815821014782261
0.909,1.8178186176588087
0.91,1.8198162205353567
0.911,1.8218138234119048
0.912,1.8238114262884533
0.913,1.825809029165001
0.914,1.82780663204155
0.915,1.829804234918098
0.916,1.8318018377946463
0.917,1.8337994406711944
0.918,1.8357970435477424
0.919,1.8377946464242907
0.92,1.8397922493008387
0.921,1.841789852177387
0.922,1.843787455053935
0.923,1.8457850579304835
0.924,1.847782660807032
0.925,1.84978026368358
0.926,1.851777866560128
0.927,1.853775469436676
0.928,1.855773072313224
0.929,1.857770675189772
0.93,1.8597682780663205
0.931,1.8617658809428683
0.932,1.8637634838194168
0.933,1.8657610866959649
0.934,1.867758689572513
0.935,1.869756292449061
0.936,1.871753895325609
0.937,1.8737514982021573
0.9380000000000001,1.8757491010787053
0.9390000000000001,1.8777467039552536
0.9400000000000001,1.8797443068318016
0.9410000000000001,1.8817419097083496
0.9420000000000001,1.883739512584898
0.9430000000000001,1.8857371154614464
0.9440000000000001,1.8877347183379944
0.9450000000000001,1.8897323212145425
0.9460000000000001,1.8917299240910903
0.9470000000000001,1.8937275269676384
0.9480000000000001,1.8957251298441868
0.9490000000000001,1.8977227327207349
0.9500000000000001,1.8997203355972831
0.9510000000000001,1.9017179384738312
0.9520000000000001,1.90371554135038
0.9530000000000001,1.9057131442269275
0.9540000000000001,1.9077107471034755
0.9550000000000001,1.909708349980024
0.9560000000000001,1.911705952856572
0.9570000000000001,1.91370355573312
0.9580000000000001,1.915701158609668
0.9590000000000001,1.9176987614862164
0.96,1.9196963643627645
0.961,1.9216939672393127
0.962,1.9236915701158608
0.963,1.9256891729924088
0.964,1.927686775868957
0.965,1.9296843787455047
0.966,1.9316819816220527
0.967,1.9336795844986008
0.968,1.9356771873751497
0.969,1.9376747902516973
0.97,1.939672393128246
0.971,1.941669996004794
0.972,1.943667598881342
0.973,1.9456652017578904
0.974,1.9476628046344384
0.975,1.949660407510987
0.976,1.9516580103875347
0.977,1.953655613264083
0.978,1.955653216140631
0.979,1.957650819017179
0.98,1.959648421893728
0.981,1.961646024770276
0.982,1.963643627646824
0.983,1.965641230523372
0.984,1.96763883339992
0.985,1.969636436276468
0.986,1.9716340391530165
0.987,1.9736316420295643
0.988,1.9756292449061124
0.989,1.9776268477826608
0.99,1.979624450659209
0.991,1.981622053535757
0.992,1.983619656412305
0.993,1.9856172592888528
0.994,1.9876148621654013
0.995,1.9896124650419496
0.996,1.9916100679184976
0.997,1.9936076707950456
0.998,1.995605273671594
0.999,1.997602876548142
1.0,1.9996004794246904
1.0010000000000001,2.0015980823012383
1.002,2.0035956851777863
1.0030000000000001,2.005593288054335
1.004,2.007590890930883
1.0050000000000001,2.009588493807431
1.006,2.011586096683979
1.0070000000000001,2.013583699560527
1.008,2.0155813024370755
1.0090000000000001,2.0175789053136235
1.01,2.0195765081901715
1.0110000000000001,2.02157411106672
1.012,2.023571713943268
1.0130000000000001,2.025569316819816
1.014,2.027566919696364
1.0150000000000001,2.029564522572912
1.016,2.03156212544946
1.0170000000000001,2.0335597283260087
1.018,2.0355573312025568
1.0190000000000001,2.037554934079105
1.02,2.039552536955653
1.0210000000000001,2.0415501398322013
1.022,2.0435477427087494
1.0230000000000001,2.045545345585297
1.024,2.047542948461845
1.025,2.049540551338393
1.026,2.051538154214942
1.027,2.05353575709149
1.028,2.055533359968038
1.029,2.057530962844586
1.03,2.059528565721134
1.031,2.0615261685976827
1.032,2.0635237714742307
1.033,2.0655213743507788
1.034,2.067518977227327
1.035,2.069516580103876
1.036,2.071514182980424
1.037,2.0735117858569714
1.038,2.0755093887335194
1.039,2.077506991610068
1.04,2.079504594486616
1.041,2.081502197363164
1.042,2.083499800239712
1.043,2.08549740311626
1.044,2.087495005992809
1.045,2.0894926088693566
1.046,2.0914902117459047
1.047,2.0934878146224527
1.048,2.095485417499001
1.049,2.097483020375549
1.05,2.0994806232520973
1.051,2.1014782261286453
1.052,2.1034758290051934
1.053,2.105473431881742
1.054,2.10747103475829
1.055,2.109468637634838
1.056,2.111466240511386
1.057,2.1134638433879345
1.058,2.1154614462644825
1.059,2.1174590491410306
1.06,2.1194566520175786
1.061,2.121454254894126
1.062,2.123451857770675
1.063,2.125449460647223
1.064,2.127447063523771
1.065,2.12944466640032
1.066,2.131442269276868
1.067,2.133439872153416
1.068,2.135437475029964
1.069,2.137435077906512
1.07,2.13943268078306
1.071,2.1414302836596084
1.072,2.1434278865361565
1.073,2.1454254894127045
1.074,2.1474230922892525
1.075,2.149420695165801
1.076,2.151418298042349
1.077,2.153415900918897
1.078,2.155413503795445
1.079,2.157411106671993
1.08,2.1594087095485417
1.081,2.1614063124250897
1.082,2.163403915301638
1.083,2.165401518178186
1.084,2.1673991210547343
1.085,2.1693967239312824
1.086,2.1713943268078304
1.087,2.1733919296843784
1.088,2.1753895325609265
1.089,2.177387135437475
1.09,2.179384738314023
1.091,2.181382341190571
1.092,2.183379944067119
1.093,2.185377546943668
1.094,2.187375149820216
1.095,2.189372752696764
1.096,2.191370355573312
1.097,2.19336795844986
1.098,2.1953655613264083
1.099,2.1973631642029563
1.1,2.1993607670795043
1.101,2.2013583699560524
1.102,2.203355972832601
1.103,2.205353575709149
1.104,2.207351178585697
1.105,2.209348781462245
1.106,2.211346384338793
1.107,2.213343987215341
1.108,2.2153415900918896
1.109,2.2173391929684376
1.11,2.2193367958449857
1.111,2.221334398721534
1.112,2.223332001598082
1.113,2.2253296044746302
1.114,2.2273272073511783
1.115,2.2293248102277263
1.116,2.231322413104275
1.117,2.233320015980823
1.118,2.235317618857371
1.119,2.237315221733919
1.12,2.2393128246104674
1.121,2.2413104274870155
1.122,2.2433080303635635
1.123,2.245305633240112
1.124,2.24730323611666
1.125,2.249300838993208
1.1260000000000001,2.251298441869756
1.127,2.253296044746304
1.1280000000000001,2.255293647622852
1.129,2.2572912504994003
1.1300000000000001,2.2592888533759488
1.131,2.261286456252497
1.1320000000000001,2.263284059129045
1.133,2.265281662005593
1.1340000000000001,2.2672792648821414
1.135,2.2692768677586894
1.1360000000000001,2.271274470635237
1.137,2.273272073511785
1.1380000000000001,2.2752696763883336
1.139,2.277267279264882
1.1400000000000001,2.27926488214143
1.141,2.281262485017978
1.1420000000000001,2.283260087894526
1.143,2.2852576907710747
1.1440000000000001,2.2872552936476227
1.145,2.2892528965241707
1.1460000000000001,2.291250499400719
1.147,2.293248102277267
1.1480000000000001,2.295245705153816
1.149,2.297243308030364
1.1500000000000001,2.2992409109069114
1.151,2.3012385137834594
1.1520000000000001,2.303236116660008
1.153,2.305233719536556
1.154,2.307231322413104
1.155,2.309228925289652
1.156,2.3112265281662
1.157,2.3132241310427486
1.158,2.3152217339192966
1.159,2.3172193367958447
1.16,2.3192169396723927
1.161,2.321214542548941
1.162,2.3232121454254893
1.163,2.3252097483020373
1.164,2.3272073511785853
1.165,2.3292049540551334
1.166,2.331202556931682
1.167,2.33320015980823
1.168,2.335197762684778
1.169,2.337195365561326
1.17,2.3391929684378745
1.171,2.3411905713144225
1.172,2.3431881741909706
1.173,2.345185777067518
1.174,2.3471833799440667
1.175,2.349180982820615
1.176,2.351178585697163
1.177,2.3531761885737112
1.178,2.35517379145026
1.179,2.357171394326808
1.18,2.359168997203356
1.181,2.361166600079904
1.182,2.363164202956452
1.183,2.365161805833
1.184,2.3671594087095484
1.185,2.3691570115860965
1.186,2.3711546144626445
1.187,2.373152217339193
1.188,2.375149820215741
1.189,2.377147423092289
1.19,2.379145025968837
1.191,2.381142628845385
1.192,2.383140231721933
1.193,2.3851378345984817
1.194,2.3871354374750298
1.195,2.389133040351578
1.196,2.391130643228126
1.197,2.3931282461046743
1.198,2.3951258489812224
1.199,2.3971234518577704
1.2,2.3991210547343185
1.201,2.4011186576108665
1.202,2.403116260487415
1.203,2.405113863363963
1.204,2.407111466240511
1.205,2.409109069117059
1.206,2.411106671993608
1.207,2.413104274870156
1.208,2.415101877746704
1.209,2.417099480623252
1.21,2.4190970834998
1.211,2.4210946863763483
1.212,2.4230922892528963
1.213,2.4250898921294444
1.214,2.4270874950059924
1.215,2.429085097882541
1.216,2.431082700759089
1.217,2.433080303635637
1.218,2.435077906512185
1.219,2.437075509388733
1.22,2.4390731122652816
1.221,2.4410707151418296
1.222,2.4430683180183776
1.223,2.4450659208949257
1.224,2.447063523771474
1.225,2.4490611266480222
1.226,2.4510587295245703
1.227,2.4530563324011183
1.228,2.4550539352776664
1.229,2.457051538154215
1.23,2.459049141030763
1.231,2.461046743907311
1.232,2.463044346783859
1.233,2.4650419496604075
1.234,2.4670395525369555
1.235,2.4690371554135035
1.236,2.471034758290052
1.237,2.4730323611666
1.238,2.475029964043148
1.239,2.477027566919696
1.24,2.479025169796244
1.241,2.4810227726727923
1.242,2.4830203755493407
1.243,2.485017978425889
1.244,2.487015581302437
1.245,2.489013184178985
1.246,2.491010787055533
1.247,2.4930083899320814
1.248,2.495005992808629
1.249,2.497003595685177
1.25,2.499001198561725
1.2510000000000001,2.500998801438274
1.252,2.502996404314822
1.2530000000000001,2.50499400719137
1.254,2.506991610067918
1.2550000000000001,2.508989212944466
1.256,2.5109868158210147
1.2570000000000001,2.5129844186975627
1.258,2.5149820215741108
1.2590000000000001,2.516979624450659
1.26,2.518977227327208
1.2610000000000001,2.520974830203756
1.262,2.5229724330803034
1.2630000000000001,2.5249700359568514
1.264,2.5269676388333995
1.2650000000000001,2.528965241709948
1.266,2.530962844586496
1.2670000000000001,2.532960447463044
1.268,2.534958050339592
1.2690000000000001,2.5369556532161406
1.27,2.5389532560926886
1.2710000000000001,2.5409508589692367
1.272,2.5429484618457847
1.2730000000000001,2.5449460647223328
1.274,2.546943667598881
1.2750000000000001,2.5489412704754293
1.276,2.5509388733519773
1.2770000000000001,2.5529364762285254
1.278,2.554934079105074
1.2790000000000001,2.556931681981622
1.28,2.55892928485817
1.281,2.560926887734718
1.282,2.562924490611266
1.283,2.5649220934878145
1.284,2.5669196963643626
1.285,2.5689172992409106
1.286,2.5709149021174587
1.287,2.572912504994007
1.288,2.574910107870555
1.289,2.5769077107471032
1.29,2.578905313623652
1.291,2.5809029165002
1.292,2.582900519376748
1.293,2.584898122253296
1.294,2.586895725129844
1.295,2.588893328006392
1.296,2.5908909308829404
1.297,2.5928885337594885
1.298,2.5948861366360365
1.299,2.596883739512585
1.3,2.5988813423891326
1.301,2.600878945265681
1.302,2.602876548142229
1.303,2.604874151018777
1.304,2.606871753895325
1.305,2.6088693567718737
1.306,2.6108669596484217
1.307,2.61286456252497
1.308,2.614862165401518
1.309,2.616859768278066
1.31,2.6188573711546144
1.311,2.6208549740311624
1.312,2.6228525769077105
1.313,2.6248501797842585
1.314,2.626847782660807
1.315,2.628845385537355
1.316,2.630842988413903
1.317,2.632840591290451
1.318,2.634838194166999
1.319,2.636835797043548
1.32,2.638833399920096
1.321,2.640831002796644
1.322,2.642828605673192
1.323,2.6448262085497403
1.324,2.6468238114262883
1.325,2.6488214143028364
1.326,2.6508190171793844
1.327,2.6528166200559324
1.328,2.654814222932481
1.329,2.656811825809029
1.33,2.658809428685577
1.331,2.660807031562125
1.332,2.662804634438673
1.333,2.6648022373152216
1.334,2.6667998401917696
1.335,2.6687974430683177
1.336,2.6707950459448657
1.337,2.672792648821414
1.338,2.6747902516979623
1.339,2.6767878545745103
1.34,2.6787854574510583
1.341,2.6807830603276064
1.342,2.682780663204155
1.343,2.684778266080703
1.344,2.686775868957251
1.345,2.688773471833799
1.346,2.6907710747103475
1.347,2.6927686775868955
1.348,2.694766280463444
1.349,2.696763883339992
1.35,2.69876148621654
1.351,2.700759089093088
1.352,2.702756691969636
1.353,2.704754294846184
1.354,2.7067518977227323
1.355,2.7087495005992808
1.356,2.710747103475829
1.357,2.712744706352377
1.358,2.714742309228925
1.359,2.716739912105473
1.36,2.718737514982021
1.361,2.720735117858569
1.362,2.722732720735117
1.363,2.7247303236116656
1.364,2.726727926488214
1.365,2.728725529364762
1.366,2.73072313224131
1.367,2.732720735117858
1.368,2.7347183379944062
1.369,2.7367159408709547
1.37,2.7387135437475028
1.371,2.740711146624051
1.372,2.742708749500599
1.373,2.744706352377148
1.374,2.746703955253696
1.375,2.7487015581302434
1.3760000000000001,2.7506991610067915
1.377,2.7526967638833395
1.3780000000000001,2.754694366759888
1.379,2.756691969636436
1.3800000000000001,2.758689572512984
1.381,2.760687175389532
1.3820000000000001,2.7626847782660806
1.383,2.7646823811426287
1.3840000000000001,2.7666799840191767
1.385,2.7686775868957247
1.3860000000000001,2.770675189772273
1.387,2.7726727926488213
1.3880000000000001,2.7746703955253693
1.389,2.7766679984019174
1.3900000000000001,2.7786656012784654
1.391,2.780663204155014
1.3920000000000001,2.782660807031562
1.393,2.78465840990811
1.3940000000000001,2.786656012784658
1.395,2.788653615661206
1.3960000000000001,2.7906512185377546
1.397,2.7926488214143026
1.3980000000000001,2.79464642429085
1.399,2.7966440271673987
1.4000000000000001,2.798641630043947
1.401,2.800639232920495
1.4020000000000001,2.802636835797044
1.403,2.804634438673592
1.4040000000000001,2.80663204155014
1.405,2.808629644426688
1.4060000000000001,2.810627247303236
1.407,2.812624850179784
1.408,2.814622453056332
1.409,2.8166200559328805
1.41,2.8186176588094285
1.411,2.8206152616859765
1.412,2.8226128645625246
1.413,2.8246104674390726
1.414,2.826608070315621
1.415,2.828605673192169
1.416,2.830603276068717
1.417,2.832600878945265
1.418,2.8345984818218137
1.419,2.8365960846983618
1.42,2.83859368757491
1.421,2.840591290451458
1.422,2.842588893328006
1.423,2.8445864962045544
1.424,2.8465840990811024
1.425,2.8485817019576505
1.426,2.8505793048341985
1.427,2.852576907710747
1.428,2.854574510587295
1.429,2.856572113463843
1.43,2.858569716340391
1.431,2.860567319216939
1.432,2.862564922093488
1.433,2.864562524970036
1.434,2.866560127846584
1.435,2.868557730723132
1.436,2.8705553335996803
1.437,2.8725529364762283
1.438,2.8745505393527764
1.439,2.8765481422293244
1.44,2.8785457451058725
1.441,2.880543347982421
1.442,2.882540950858969
1.443,2.884538553735517
1.444,2.886536156612065
1.445,2.8885337594886136
1.446,2.8905313623651616
1.447,2.8925289652417097
1.448,2.8945265681182577
1.449,2.8965241709948057
1.45,2.8985217738713542
1.451,2.9005193767479023
1.452,2.9025169796244503
1.453,2.9045145825009984
1.454,2.906512185377547
1.455,2.908509788254095
1.456,2.910507391130643
1.457,2.912504994007191
1.458,2.914502596883739
1.459,2.9165001997602875
1.46,2.918497802636836
1.461,2.920495405513384
1.462,2.922493008389932
1.463,2.92449061126648
1.464,2.926488214143028
1.465,2.928485817019576
1.466,2.9304834198961243
1.467,2.9324810227726723
1.468,2.934478625649221
1.469,2.936476228525769
1.47,2.938473831402317
1.471,2.940471434278865
1.472,2.9424690371554134
1.473,2.944466640031961
1.474,2.946464242908509
1.475,2.948461845785057
1.476,2.9504594486616056
1.477,2.952457051538154
1.478,2.954454654414702
1.479,2.95645225729125
1.48,2.958449860167798
1.481,2.9604474630443467
1.482,2.9624450659208947
1.483,2.964442668797443
1.484,2.966440271673991
1.485,2.968437874550539
1.486,2.970435477427088
1.487,2.9724330803036354
1.488,2.9744306831801834
1.489,2.9764282860567315
1.49,2.97842588893328
1.491,2.980423491809828
1.492,2.982421094686376
1.493,2.984418697562924
1.494,2.986416300439472
1.495,2.9884139033160206
1.496,2.9904115061925687
1.497,2.9924091090691167
1.498,2.9944067119456648
1.499,2.9964043148222133
1.5,2.9984019176987613
1.5010000000000001,3.0003995205753093
1.502,3.0023971234518574
1.5030000000000001,3.004394726328405
1.504,3.006392329204954
1.5050000000000001,3.008389932081502
1.506,3.01038753495805
1.5070000000000001,3.012385137834598
1.508,3.0143827407111465
1.5090000000000001,3.0163803435876946
1.51,3.018377946464242
1.5110000000000001,3.0203755493407907
1.512,3.0223731522173387
1.5130000000000001,3.024370755093887
1.514,3.0263683579704352
1.5150000000000001,3.028365960846984
1.516,3.030363563723532
1.5170000000000001,3.03236116660008
1.518,3.034358769476628
1.5190000000000001,3.036356372353176
1.52,3.038353975229724
1.5210000000000001,3.040351578106272
1.522,3.0423491809828205
1.5230000000000001,3.0443467838593685
1.524,3.046344386735917
1.5250000000000001,3.0483419896124646
1.526,3.050339592489013
1.5270000000000001,3.052337195365561
1.528,3.054334798242109
1.5290000000000001,3.056332401118657
1.53,3.0583300039952053
1.5310000000000001,3.0603276068717538
1.532,3.062325209748302
1.5330000000000001,3.06432281262485
1.534,3.066320415501398
1.5350000000000001,3.068318018377946
1.536,3.0703156212544944
1.537,3.0723132241310425
1.538,3.0743108270075905
1.539,3.0763084298841386
1.54,3.078306032760687
1.541,3.080303635637235
1.542,3.082301238513783
1.543,3.084298841390331
1.544,3.086296444266879
1.545,3.088294047143428
1.546,3.090291650019976
1.547,3.092289252896524
1.548,3.094286855773072
1.549,3.0962844586496203
1.55,3.0982820615261684
1.551,3.1002796644027164
1.552,3.1022772672792644
1.553,3.1042748701558125
1.554,3.106272473032361
1.555,3.108270075908909
1.556,3.110267678785457
1.557,3.112265281662005
1.558,3.1142628845385536
1.559,3.1162604874151016
1.56,3.1182580902916497
1.561,3.1202556931681977
1.562,3.1222532960447458
1.563,3.1242508989212943
1.564,3.1262485017978423
1.565,3.1282461046743903
1.566,3.1302437075509384
1.567,3.132241310427487
1.568,3.134238913304035
1.569,3.136236516180583
1.57,3.138234119057131
1.571,3.140231721933679
1.572,3.1422293248102275
1.573,3.144226927686776
1.574,3.146224530563324
1.575,3.148222133439872
1.576,3.15021973631642
1.577,3.152217339192968
1.578,3.154214942069516
1.579,3.1562125449460643
1.58,3.1582101478226123
1.581,3.160207750699161
1.582,3.162205353575709
1.583,3.164202956452257
1.584,3.166200559328805
1.585,3.168198162205353
1.586,3.170195765081901
1.587,3.172193367958449
1.588,3.1741909708349976
1.589,3.1761885737115456
1.59,3.178186176588094
1.591,3.180183779464642
1.592,3.18218138234119
1.593,3.1841789852177382
1.594,3.1861765880942867
1.595,3.1881741909708348
1.596,3.190171793847383
1.597,3.192169396723931
1.598,3.194166999600479
1.599,3.1961646024770274
1.6,3.1981622053535754
1.601,3.2001598082301235
1.602,3.2021574111066715
1.603,3.20415501398322
1.604,3.206152616859768
1.605,3.208150219736316
1.606,3.210147822612864
1.607,3.212145425489412
1.608,3.2141430283659607
1.609,3.2161406312425087
1.61,3.2181382341190568
1.611,3.220135836995605
1.612,3.2221334398721533
1.613,3.2241310427487013
1.614,3.2261286456252494
1.615,3.2281262485017974
1.616,3.230123851378345
1.617,3.232121454254894
1.618,3.234119057131442
1.619,3.23611666000799
1.62,3.238114262884538
1.621,3.2401118657610866
1.622,3.2421094686376346
1.623,3.244107071514182
1.624,3.2461046743907307
1.625,3.2481022772672787
1.6260000000000001,3.2500998801438272
1.627,3.252097483020376
1.6280000000000001,3.254095085896924
1.629,3.256092688773472
1.6300000000000001,3.25809029165002
1.631,3.260087894526568
1.6320000000000001,3.262085497403116
1.633,3.264083100279664
1.6340000000000001,3.266080703156212
1.635,3.2680783060327605
1.6360000000000001,3.2700759089093085
1.637,3.2720735117858566
1.6380000000000001,3.2740711146624046
1.639,3.276068717538953
1.6400000000000001,3.278066320415501
1.641,3.280063923292049
1.6420000000000001,3.2820615261685973
1.643,3.2840591290451453
1.6440000000000001,3.286056731921694
1.645,3.288054334798242
1.6460000000000001,3.29005193767479
1.647,3.292049540551338
1.6480000000000001,3.2940471434278864
1.649,3.2960447463044344
1.6500000000000001,3.2980423491809825
1.651,3.3000399520575305
1.6520000000000001,3.3020375549340786
1.653,3.304035157810627
1.6540000000000001,3.306032760687175
1.655,3.308030363563723
1.6560000000000001,3.310027966440271
1.657,3.31202556931682
1.6580000000000001,3.314023172193368
1.659,3.316020775069916
1.6600000000000001,3.318018377946464
1.661,3.320015980823012
1.6620000000000001,3.3220135836995603
1.663,3.3240111865761084
1.6640000000000001,3.3260087894526564
1.665,3.3280063923292045
1.666,3.330003995205753
1.667,3.332001598082301
1.668,3.333999200958849
1.669,3.335996803835397
1.67,3.337994406711945
1.671,3.3399920095884936
1.672,3.3419896124650417
1.673,3.3439872153415897
1.674,3.3459848182181378
1.675,3.3479824210946862
1.676,3.3499800239712343
1.677,3.3519776268477823
1.678,3.3539752297243304
1.679,3.3559728326008784
1.68,3.357970435477427
1.681,3.359968038353975
1.682,3.361965641230523
1.683,3.363963244107071
1.684,3.3659608469836195
1.685,3.367958449860168
1.686,3.369956052736716
1.687,3.371953655613264
1.688,3.373951258489812
1.689,3.37594886136636
1.69,3.377946464242908
1.691,3.3799440671194563
1.692,3.3819416699960043
1.693,3.383939272872553
1.694,3.385936875749101
1.695,3.387934478625649
1.696,3.389932081502197
1.697,3.391929684378745
1.698,3.393927287255293
1.699,3.395924890131841
1.7,3.3979224930083896
1.701,3.3999200958849376
1.702,3.401917698761486
1.703,3.403915301638034
1.704,3.405912904514582
1.705,3.40791050739113
1.706,3.4099081102676783
1.707,3.4119057131442267
1.708,3.413903316020775
1.709,3.415900918897323
1.71,3.417898521773871
1.711,3.41989612465042
1.712,3.4218937275269674
1.713,3.4238913304035155
1.714,3.4258889332800635
1.715,3.4278865361566115
1.716,3.42988413903316
1.717,3.431881741909708
1.718,3.433879344786256
1.719,3.435876947662804
1.72,3.4378745505393526
1.721,3.4398721534159007
1.722,3.4418697562924487
1.723,3.4438673591689968
1.724,3.445864962045545
1.725,3.4478625649220933
1.726,3.4498601677986414
1.727,3.4518577706751894
1.728,3.453855373551737
1.729,3.455852976428286
1.73,3.457850579304834
1.731,3.459848182181382
1.732,3.46184578505793
1.733,3.463843387934478
1.734,3.4658409908110266
1.735,3.467838593687574
1.736,3.4698361965641227
1.737,3.4718337994406707
1.738,3.473831402317219
1.739,3.475829005193768
1.74,3.477826608070316
1.741,3.479824210946864
1.742,3.4818218138234114
1.743,3.48381941669996
1.744,3.485817019576508
1.745,3.487814622453056
1.746,3.489812225329604
1.747,3.491809828206152
1.748,3.4938074310827005
1.749,3.495805033959249
1.75,3.4978026368357966
1.7510000000000001,3.4998002397123447
1.752,3.501797842588893
1.7530000000000001,3.503795445465441
1.754,3.505793048341989
1.7550000000000001,3.5077906512185373
1.756,3.5097882540950853
1.7570000000000001,3.511785856971634
1.758,3.513783459848182
1.7590000000000001,3.51578106272473
1.76,3.517778665601278
1.7610000000000001,3.5197762684778264
1.762,3.5217738713543745
1.7630000000000001,3.5237714742309225
1.764,3.5257690771074706
1.7650000000000001,3.5277666799840186
1.766,3.529764282860567
1.7670000000000001,3.531761885737115
1.768,3.533759488613663
1.7690000000000001,3.5357570914902112
1.77,3.53775469436676
1.7710000000000001,3.539752297243308
1.772,3.541749900119856
1.7730000000000001,3.543747502996404
1.774,3.545745105872952
1.7750000000000001,3.5477427087495004
1.776,3.5497403116260484
1.7770000000000001,3.5517379145025965
1.778,3.5537355173791445
1.7790000000000001,3.555733120255693
1.78,3.557730723132241
1.7810000000000001,3.559728326008789
1.782,3.561725928885337
1.7830000000000001,3.563723531761885
1.784,3.5657211346384337
1.7850000000000001,3.5677187375149817
1.786,3.5697163403915297
1.7870000000000001,3.571713943268078
1.788,3.5737115461446263
1.7890000000000001,3.5757091490211743
1.79,3.5777067518977224
1.7910000000000001,3.5797043547742704
1.792,3.5817019576508184
1.793,3.583699560527367
1.794,3.585697163403915
1.795,3.587694766280463
1.796,3.589692369157011
1.797,3.59168997203356
1.798,3.593687574910108
1.799,3.595685177786656
1.8,3.597682780663204
1.801,3.599680383539752
1.802,3.6016779864163
1.803,3.603675589292848
1.804,3.605673192169396
1.805,3.607670795045944
1.806,3.609668397922493
1.807,3.611666000799041
1.808,3.613663603675589
1.809,3.615661206552137
1.81,3.617658809428685
1.811,3.6196564123052335
1.812,3.6216540151817815
1.813,3.6236516180583296
1.814,3.6256492209348776
1.815,3.627646823811426
1.816,3.629644426687974
1.817,3.631642029564522
1.818,3.6336396324410702
1.819,3.6356372353176174
1.82,3.637634838194167
1.821,3.639632441070715
1.822,3.641630043947263
1.823,3.643627646823811
1.824,3.64562524970036
1.825,3.647622852576907
1.826,3.649620455453456
1.827,3.651618058330004
1.828,3.653615661206552
1.829,3.6556132640831
1.83,3.657610866959648
1.831,3.659608469836196
1.832,3.661606072712744
1.833,3.6636036755892927
1.834,3.6656012784658407
1.835,3.6675988813423888
1.836,3.669596484218937
1.837,3.671594087095485
1.838,3.673591689972033
1.839,3.675589292848581
1.84,3.6775868957251294
1.841,3.6795844986016775
1.842,3.681582101478226
1.843,3.683579704354774
1.844,3.685577307231322
1.845,3.68757491010787
1.846,3.689572512984418
1.847,3.691570115860967
1.848,3.693567718737514
1.849,3.695565321614063
1.85,3.6975629244906094
1.851,3.6995605273671592
1.852,3.7015581302437073
1.853,3.7035557331202553
1.854,3.7055533359968034
1.855,3.707550938873352
1.856,3.7095485417499
1.857,3.711546144626448
1.858,3.713543747502996
1.859,3.715541350379544
1.86,3.717538953256093
1.861,3.719536556132641
1.862,3.7215341590091886
1.863,3.7235317618857366
1.864,3.7255293647622847
1.865,3.727526967638833
1.866,3.729524570515381
1.867,3.731522173391929
1.868,3.733519776268477
1.869,3.735517379145026
1.87,3.737514982021574
1.871,3.739512584898122
1.872,3.74151018777467
1.873,3.743507790651218
1.874,3.7455053935277673
1.875,3.7475029964043145
1.8760000000000001,3.749500599280863
1.877,3.7514982021574106
1.8780000000000001,3.753495805033959
1.879,3.755493407910507
1.8800000000000001,3.757491010787055
1.881,3.759488613663603
1.8820000000000001,3.7614862165401513
1.883,3.7634838194167
1.8840000000000001,3.765481422293248
1.885,3.767479025169796
1.8860000000000001,3.769476628046344
1.887,3.771474230922893
1.8880000000000001,3.77347183379944
1.889,3.775469436675989
1.8900000000000001,3.777467039552537
1.891,3.779464642429085
1.8920000000000001,3.781462245305633
1.893,3.783459848182181
1.8940000000000001,3.785457451058729
1.895,3.787455053935277
1.8960000000000001,3.7894526568118256
1.897,3.7914502596883737
1.8980000000000001,3.7934478625649217
1.899,3.7954454654414698
1.9000000000000001,3.797443068318018
1.901,3.7994406711945663
1.9020000000000001,3.8014382740711135
1.903,3.8034358769476624
1.9040000000000001,3.8054334798242095
1.905,3.807431082700759
1.9060000000000001,3.809428685577307
1.907,3.811426288453855
1.9080000000000001,3.813423891330403
1.909,3.815421494206951
1.9100000000000001,3.8174190970835
1.911,3.819416699960048
1.9120000000000001,3.821414302836596
1.913,3.823411905713144
1.9140000000000001,3.825409508589692
1.915,3.82740711146624
1.9160000000000001,3.829404714342788
1.917,3.831402317219336
1.9180000000000001,3.833399920095885
1.919,3.835397522972433
1.92,3.837395125848981
1.921,3.839392728725529
1.922,3.841390331602077
1.923,3.8433879344786255
1.924,3.8453855373551735
1.925,3.8473831402317216
1.926,3.8493807431082696
1.927,3.8513783459848177
1.928,3.853375948861366
1.929,3.855373551737914
1.93,3.8573711546144622
1.931,3.8593687574910094
1.932,3.861366360367559
1.933,3.863363963244107
1.934,3.865361566120655
1.935,3.867359168997203
1.936,3.869356771873751
1.937,3.8713543747502994
1.938,3.873351977626848
1.939,3.875349580503396
1.94,3.877347183379944
1.941,3.879344786256492
1.942,3.88134238913304
1.943,3.883339992009588
1.944,3.885337594886136
1.945,3.887335197762684
1.946,3.8893328006392327
1.947,3.8913304035157807
1.948,3.893328006392329
1.949,3.895325609268877
1.95,3.897323212145425
1.951,3.899320815021973
1.952,3.9013184178985214
1.953,3.9033160207750695
1.954,3.9053136236516175
1.955,3.907311226528166
1.956,3.909308829404714
1.957,3.911306432281262
1.958,3.91330403515781
1.959,3.915301638034358
1.96,3.917299240910906
1.961,3.919296843787455
1.962,3.9212944466640014
1.963,3.923292049540551
1.964,3.9252896524170993
1.965,3.9272872552936473
1.966,3.9292848581701953
1.967,3.931282461046744
1.968,3.933280063923291
1.969,3.93527766679984
1.97,3.937275269676388
1.971,3.939272872552936
1.972,3.941270475429484
1.973,3.943268078306033
1.974,3.9452656811825806
1.975,3.9472632840591286
1.976,3.9492608869356767
1.977,3.9512584898122247
1.978,3.953256092688773
1.979,3.955253695565321
1.98,3.957251298441869
1.981,3.959248901318417
1.982,3.961246504194966
1.983,3.963244107071514
1.984,3.965241709948062
1.985,3.96723931282461
1.986,3.969236915701158
1.987,3.9712345185777065
1.988,3.973232121454256
1.989,3.9752297243308026
1.99,3.977227327207351
1.991,3.979224930083899
1.992,3.981222532960447
1.993,3.983220135836995
1.994,3.9852177387135432
1.995,3.9872153415900913
1.996,3.98921294446664
1.997,3.991210547343188
1.998,3.993208150219736
1.999,3.995205753096284
2.0,3.997203355972832
2.001,3.999200958849381
2.0020000000000002,4.0011985617259285
2.003,4.0031961646024765
2.004,4.005193767479025
2.005,4.007191370355573
2.0060000000000002,4.009188973232121
2.007,4.01118657610867
2.008,4.013184178985218
2.009,4.015181781861766
2.0100000000000002,4.017179384738314
2.011,4.019176987614862
2.012,4.02117459049141
2.013,4.023172193367958
2.0140000000000002,4.025169796244506
2.015,4.027167399121054
2.016,4.029165001997603
2.017,4.031162604874151
2.0180000000000002,4.033160207750699
2.019,4.035157810627247
2.02,4.037155413503795
2.021,4.039153016380343
2.0220000000000002,4.041150619256891
2.023,4.043148222133439
2.024,4.045145825009987
2.025,4.047143427886536
2.0260000000000002,4.049141030763084
2.027,4.051138633639632
2.028,4.05313623651618
2.029,4.055133839392728
2.0300000000000002,4.057131442269276
2.031,4.059129045145824
2.032,4.061126648022372
2.033,4.0631242508989205
2.0340000000000003,4.065121853775469
2.035,4.0671194566520175
2.036,4.0691170595285655
2.037,4.0711146624051135
2.0380000000000003,4.073112265281662
2.039,4.07510986815821
2.04,4.077107471034758
2.041,4.079105073911306
2.0420000000000003,4.081102676787854
2.043,4.083100279664403
2.044,4.085097882540951
2.045,4.087095485417499
2.0460000000000003,4.089093088294047
2.047,4.091090691170595
2.048,4.093088294047143
2.049,4.095085896923691
2.05,4.097083499800239
2.051,4.099081102676787
2.052,4.101078705553336
2.053,4.103076308429884
2.054,4.105073911306432
2.055,4.10707151418298
2.056,4.109069117059528
2.057,4.111066719936076
2.058,4.113064322812624
2.059,4.115061925689172
2.06,4.11705952856572
2.061,4.119057131442269
2.062,4.121054734318817
2.063,4.123052337195365
2.064,4.125049940071913
2.065,4.127047542948461
2.066,4.1290451458250095
2.067,4.1310427487015575
2.068,4.133040351578106
2.069,4.135037954454654
2.07,4.1370355573312025
2.071,4.139033160207751
2.072,4.141030763084299
2.073,4.143028365960847
2.074,4.145025968837395
2.075,4.147023571713943
2.076,4.149021174590491
2.077,4.151018777467039
2.078,4.153016380343587
2.079,4.155013983220136
2.08,4.157011586096684
2.081,4.159009188973232
2.082,4.16100679184978
2.083,4.163004394726328
2.084,4.165001997602876
2.085,4.166999600479424
2.086,4.168997203355972
2.087,4.17099480623252
2.088,4.172992409109069
2.089,4.174990011985617
2.09,4.176987614862165
2.091,4.178985217738713
2.092,4.180982820615261
2.093,4.182980423491809
2.094,4.184978026368357
2.095,4.186975629244905
2.096,4.188973232121453
2.097,4.190970834998002
2.098,4.19296843787455
2.099,4.1949660407510985
2.1,4.196963643627647
2.101,4.1989612465041946
2.102,4.200958849380743
2.103,4.202956452257291
2.104,4.204954055133839
2.105,4.206951658010387
2.106,4.208949260886936
2.107,4.210946863763484
2.108,4.212944466640032
2.109,4.21494206951658
2.11,4.216939672393128
2.111,4.218937275269676
2.112,4.220934878146224
2.113,4.222932481022772
2.114,4.22493008389932
2.115,4.226927686775869
2.116,4.228925289652417
2.117,4.230922892528965
2.118,4.232920495405513
2.119,4.234918098282061
2.12,4.236915701158609
2.121,4.238913304035157
2.122,4.240910906911705
2.123,4.242908509788253
2.124,4.244906112664802
2.125,4.24690371554135
2.126,4.248901318417898
2.1270000000000002,4.250898921294446
2.128,4.252896524170994
2.129,4.254894127047542
2.13,4.2568917299240905
2.1310000000000002,4.258889332800639
2.132,4.260886935677187
2.133,4.262884538553736
2.134,4.264882141430284
2.1350000000000002,4.266879744306832
2.136,4.26887734718338
2.137,4.270874950059928
2.138,4.272872552936476
2.1390000000000002,4.274870155813024
2.14,4.276867758689572
2.141,4.27886536156612
2.142,4.280862964442669
2.1430000000000002,4.282860567319217
2.144,4.284858170195765
2.145,4.286855773072313
2.146,4.288853375948861
2.1470000000000002,4.290850978825409
2.148,4.292848581701957
2.149,4.294846184578505
2.15,4.296843787455053
2.1510000000000002,4.298841390331602
2.152,4.30083899320815
2.153,4.302836596084698
2.154,4.304834198961246
2.1550000000000002,4.306831801837794
2.156,4.308829404714342
2.157,4.31082700759089
2.158,4.312824610467438
2.1590000000000003,4.314822213343986
2.16,4.316819816220535
2.161,4.318817419097083
2.162,4.320815021973631
2.1630000000000003,4.32281262485018
2.164,4.324810227726728
2.165,4.326807830603276
2.166,4.328805433479824
2.1670000000000003,4.330803036356372
2.168,4.33280063923292
2.169,4.334798242109469
2.17,4.336795844986017
2.1710000000000003,4.338793447862565
2.172,4.340791050739113
2.173,4.342788653615661
2.174,4.344786256492209
2.1750000000000003,4.346783859368757
2.176,4.348781462245305
2.177,4.350779065121853
2.178,4.352776667998402
2.179,4.35477427087495
2.18,4.356771873751498
2.181,4.358769476628046
2.182,4.360767079504594
2.183,4.362764682381142
2.184,4.36476228525769
2.185,4.366759888134238
2.186,4.368757491010786
2.187,4.370755093887335
2.188,4.372752696763883
2.189,4.374750299640431
2.19,4.376747902516979
2.191,4.378745505393527
2.192,4.380743108270075
2.193,4.382740711146624
2.194,4.384738314023172
2.195,4.38673591689972
2.196,4.3887335197762685
2.197,4.3907311226528165
2.198,4.3927287255293646
2.199,4.394726328405913
2.2,4.396723931282461
2.201,4.398721534159009
2.202,4.400719137035557
2.203,4.402716739912105
2.204,4.404714342788653
2.205,4.406711945665202
2.206,4.40870954854175
2.207,4.410707151418298
2.208,4.412704754294846
2.209,4.414702357171394
2.21,4.416699960047942
2.211,4.41869756292449
2.212,4.420695165801038
2.213,4.422692768677586
2.214,4.424690371554135
2.215,4.426687974430683
2.216,4.428685577307231
2.217,4.430683180183779
2.218,4.432680783060327
2.219,4.434678385936875
2.22,4.436675988813423
2.221,4.438673591689971
2.222,4.440671194566519
2.223,4.442668797443068
2.224,4.444666400319616
2.225,4.446664003196164
2.226,4.448661606072712
2.227,4.4506592089492605
2.228,4.4526568118258085
2.229,4.454654414702357
2.23,4.456652017578905
2.231,4.458649620455453
2.232,4.460647223332002
2.233,4.46264482620855
2.234,4.464642429085098
2.235,4.466640031961646
2.236,4.468637634838194
2.237,4.470635237714742
2.238,4.47263284059129
2.239,4.474630443467838
2.24,4.476628046344386
2.241,4.478625649220935
2.242,4.480623252097483
2.243,4.482620854974031
2.244,4.484618457850579
2.245,4.486616060727127
2.246,4.488613663603675
2.247,4.490611266480223
2.248,4.492608869356771
2.249,4.494606472233319
2.25,4.496604075109868
2.251,4.498601677986416
2.2520000000000002,4.500599280862964
2.253,4.502596883739512
2.254,4.50459448661606
2.255,4.506592089492608
2.2560000000000002,4.508589692369156
2.257,4.5105872952457045
2.258,4.5125848981222525
2.259,4.5145825009988005
2.2600000000000002,4.5165801038753495
2.261,4.5185777067518975
2.262,4.520575309628446
2.263,4.522572912504994
2.2640000000000002,4.524570515381542
2.265,4.52656811825809
2.266,4.528565721134638
2.267,4.530563324011186
2.2680000000000002,4.532560926887734
2.269,4.534558529764283
2.27,4.536556132640831
2.271,4.538553735517379
2.2720000000000002,4.540551338393927
2.273,4.542548941270475
2.274,4.544546544147023
2.275,4.546544147023571
2.2760000000000002,4.548541749900119
2.277,4.550539352776667
2.278,4.552536955653216
2.279,4.554534558529764
2.2800000000000002,4.556532161406312
2.281,4.55852976428286
2.282,4.560527367159408
2.283,4.562524970035956
2.2840000000000003,4.564522572912504
2.285,4.566520175789052
2.286,4.5685177786656
2.287,4.570515381542149
2.2880000000000003,4.572512984418697
2.289,4.574510587295245
2.29,4.5765081901717934
2.291,4.5785057930483415
2.2920000000000003,4.5805033959248895
2.293,4.582500998801438
2.294,4.584498601677986
2.295,4.586496204554534
2.2960000000000003,4.588493807431083
2.297,4.590491410307631
2.298,4.592489013184179
2.299,4.594486616060727
2.3000000000000003,4.596484218937275
2.301,4.598481821813823
2.302,4.600479424690371
2.303,4.602477027566919
2.3040000000000003,4.604474630443467
2.305,4.606472233320016
2.306,4.608469836196564
2.307,4.610467439073112
2.308,4.61246504194966
2.309,4.614462644826208
2.31,4.616460247702756
2.311,4.618457850579304
2.312,4.620455453455852
2.313,4.6224530563324
2.314,4.624450659208949
2.315,4.626448262085497
2.316,4.628445864962045
2.317,4.630443467838593
2.318,4.632441070715141
2.319,4.634438673591689
2.32,4.636436276468237
2.321,4.6384338793447855
2.322,4.6404314822213335
2.323,4.642429085097882
2.324,4.644426687974431
2.325,4.6464242908509785
2.326,4.648421893727527
2.327,4.650419496604075
2.328,4.652417099480623
2.329,4.654414702357171
2.33,4.656412305233719
2.331,4.658409908110267
2.332,4.660407510986816
2.333,4.662405113863364
2.334,4.664402716739912
2.335,4.66640031961646
2.336,4.668397922493008
2.337,4.670395525369556
2.338,4.672393128246104
2.339,4.674390731122652
2.34,4.6763883339992
2.341,4.678385936875749
2.342,4.680383539752297
2.343,4.682381142628845
2.344,4.684378745505393
2.345,4.686376348381941
2.346,4.688373951258489
2.347,4.690371554135037
2.348,4.692369157011585
2.349,4.694366759888133
2.35,4.696364362764682
2.351,4.69836196564123
2.352,4.700359568517778
2.353,4.702357171394326
2.354,4.7043547742708745
2.355,4.706352377147423
2.356,4.7083499800239705
2.357,4.710347582900519
2.358,4.712345185777067
2.359,4.714342788653616
2.36,4.716340391530164
2.361,4.718337994406712
2.362,4.72033559728326
2.363,4.722333200159808
2.364,4.724330803036356
2.365,4.726328405912904
2.366,4.728326008789452
2.367,4.730323611666
2.368,4.732321214542549
2.369,4.734318817419097
2.37,4.736316420295645
2.371,4.738314023172193
2.372,4.740311626048741
2.373,4.742309228925289
2.374,4.744306831801837
2.375,4.746304434678385
2.376,4.748302037554933
2.3770000000000002,4.750299640431482
2.378,4.75229724330803
2.379,4.754294846184578
2.38,4.756292449061126
2.3810000000000002,4.758290051937674
2.382,4.760287654814222
2.383,4.76228525769077
2.384,4.764282860567318
2.3850000000000002,4.7662804634438665
2.386,4.768278066320415
2.387,4.770275669196963
2.388,4.772273272073512
2.3890000000000002,4.77427087495006
2.39,4.776268477826608
2.391,4.778266080703156
2.392,4.780263683579704
2.3930000000000002,4.782261286456252
2.394,4.7842588893328
2.395,4.786256492209349
2.396,4.788254095085897
2.3970000000000002,4.790251697962445
2.398,4.792249300838993
2.399,4.794246903715541
2.4,4.796244506592089
2.4010000000000002,4.798242109468637
2.402,4.800239712345185
2.403,4.802237315221733
2.404,4.804234918098282
2.4050000000000002,4.80623252097483
2.406,4.808230123851378
2.407,4.810227726727926
2.408,4.812225329604474
2.4090000000000003,4.814222932481022
2.41,4.81622053535757
2.411,4.818218138234118
2.412,4.820215741110666
2.4130000000000003,4.822213343987215
2.414,4.824210946863763
2.415,4.826208549740311
2.416,4.828206152616859
2.4170000000000003,4.830203755493407
2.418,4.832201358369956
2.419,4.834198961246504
2.42,4.836196564123052
2.4210000000000003,4.8381941669996
2.422,4.8401917698761485
2.423,4.842189372752697
2.424,4.844186975629245
2.4250000000000003,4.846184578505793
2.426,4.848182181382341
2.427,4.850179784258889
2.428,4.852177387135437
2.4290000000000003,4.854174990011985
2.43,4.856172592888533
2.431,4.858170195765082
2.432,4.86016779864163
2.433,4.862165401518178
2.434,4.864163004394726
2.435,4.866160607271274
2.436,4.868158210147822
2.437,4.87015581302437
2.438,4.872153415900918
2.439,4.874151018777466
2.44,4.876148621654015
2.441,4.878146224530563
2.442,4.880143827407111
2.443,4.882141430283659
2.444,4.884139033160207
2.445,4.886136636036755
2.446,4.888134238913303
2.447,4.890131841789851
2.448,4.892129444666399
2.449,4.894127047542948
2.45,4.896124650419496
2.451,4.8981222532960444
2.452,4.9001198561725925
2.453,4.9021174590491405
2.454,4.904115061925689
2.455,4.906112664802237
2.456,4.908110267678785
2.457,4.910107870555333
2.458,4.912105473431882
2.459,4.91410307630843
2.46,4.916100679184978
2.461,4.918098282061526
2.462,4.920095884938074
2.463,4.922093487814622
2.464,4.92409109069117
2.465,4.926088693567718
2.466,4.928086296444266
2.467,4.930083899320815
2.468,4.932081502197363
2.469,4.934079105073911
2.47,4.936076707950459
2.471,4.938074310827007
2.472,4.940071913703555
2.473,4.942069516580103
2.474,4.944067119456651
2.475,4.946064722333199
2.476,4.948062325209748
2.477,4.950059928086296
2.478,4.952057530962844
2.479,4.954055133839392
2.48,4.95605273671594
2.481,4.958050339592488
2.482,4.9600479424690365
2.483,4.9620455453455845
2.484,4.9640431482221326
2.485,4.9660407510986815
2.486,4.9680383539752295
2.487,4.970035956851778
2.488,4.972033559728326
2.489,4.974031162604874
2.49,4.976028765481422
2.491,4.97802636835797
2.492,4.980023971234518
2.493,4.982021574111066
2.494,4.984019176987615
2.495,4.986016779864163
2.496,4.988014382740711
2.497,4.990011985617259
2.498,4.992009588493807
2.499,4.994007191370355
2.5,4.996004794246903
2.501,4.998002397123451
2.5020000000000002,4.999999999999999
2.503,5.001997602876548
2.504,5.003995205753096
2.505,5.005992808629644
2.5060000000000002,5.007990411506192
2.507,5.00998801438274
2.508,5.011985617259288
2.509,5.013983220135836
2.5100000000000002,5.015980823012384
2.511,5.017978425888932
2.512,5.019976028765481
2.513,5.021973631642029
2.5140000000000002,5.023971234518577
2.515,5.0259688373951255
2.516,5.0279664402716735
2.517,5.0299640431482215
2.5180000000000002,5.03196164602477
2.519,5.033959248901318
2.52,5.035956851777866
2.521,5.037954454654415
2.5220000000000002,5.039952057530963
2.523,5.041949660407511
2.524,5.043947263284059
2.525,5.045944866160607
2.5260000000000002,5.047942469037155
2.527,5.049940071913703
2.528,5.051937674790251
2.529,5.053935277666799
2.5300000000000002,5.055932880543348
2.531,5.057930483419896
2.532,5.059928086296444
2.533,5.061925689172992
2.5340000000000003,5.06392329204954
2.535,5.065920894926088
2.536,5.067918497802636
2.537,5.069916100679184
2.5380000000000003,5.071913703555732
2.539,5.073911306432281
2.54,5.075908909308829
2.541,5.077906512185377
2.5420000000000003,5.079904115061925
2.543,5.081901717938473
2.544,5.083899320815021
2.545,5.085896923691569
2.5460000000000003,5.0878945265681175
2.547,5.0898921294446655
2.548,5.0918897323212144
2.549,5.0938873351977625
2.5500000000000003,5.095884938074311
2.551,5.097882540950859
2.552,5.099880143827407
2.553,5.101877746703955
2.5540000000000003,5.103875349580503
2.555,5.105872952457051
2.556,5.107870555333599
2.557,5.109868158210148
2.5580000000000003,5.111865761086696
2.559,5.113863363963244
2.56,5.115860966839792
2.561,5.11785856971634
2.562,5.119856172592888
2.563,5.121853775469436
2.564,5.123851378345984
2.565,5.125848981222532
2.566,5.127846584099081
2.567,5.129844186975629
2.568,5.131841789852177
2.569,5.133839392728725
2.57,5.135836995605273
2.571,5.137834598481821
2.572,5.139832201358369
2.573,5.141829804234917
2.574,5.143827407111465
2.575,5.145825009988014
2.576,5.147822612864562
2.577,5.14982021574111
2.578,5.151817818617658
2.579,5.153815421494207
2.58,5.1558130243707545
2.581,5.157810627247303
2.582,5.159808230123851
2.583,5.161805833000399
2.584,5.163803435876948
2.585,5.165801038753496
2.586,5.167798641630044
2.587,5.169796244506592
2.588,5.17179384738314
2.589,5.173791450259688
2.59,5.175789053136236
2.591,5.177786656012784
2.592,5.179784258889332
2.593,5.181781861765881
2.594,5.183779464642429
2.595,5.185777067518977
2.596,5.187774670395525
2.597,5.189772273272073
2.598,5.191769876148621
2.599,5.193767479025169
2.6,5.195765081901717
2.601,5.197762684778265
2.602,5.199760287654814
2.603,5.201757890531362
2.604,5.20375549340791
2.605,5.205753096284458
2.606,5.207750699161006
2.607,5.209748302037554
2.608,5.211745904914102
2.609,5.21374350779065
2.61,5.215741110667199
2.611,5.217738713543747
2.612,5.219736316420296
2.613,5.221733919296844
2.614,5.223731522173392
2.615,5.22572912504994
2.616,5.227726727926488
2.617,5.229724330803036
2.618,5.231721933679584
2.619,5.233719536556132
2.62,5.235717139432681
2.621,5.237714742309229
2.622,5.239712345185777
2.623,5.241709948062325
2.624,5.243707550938873
2.625,5.245705153815421
2.626,5.247702756691969
2.6270000000000002,5.249700359568517
2.628,5.251697962445065
2.629,5.253695565321614
2.63,5.255693168198162
2.6310000000000002,5.25769077107471
2.632,5.259688373951258
2.633,5.261685976827806
2.634,5.263683579704354
2.6350000000000002,5.265681182580902
2.636,5.26767878545745
2.637,5.269676388333998
2.638,5.271673991210547
2.6390000000000002,5.273671594087095
2.64,5.275669196963643
2.641,5.277666799840191
2.642,5.279664402716739
2.6430000000000002,5.281662005593288
2.644,5.283659608469836
2.645,5.285657211346384
2.646,5.287654814222932
2.6470000000000002,5.2896524170994805
2.648,5.291650019976029
2.649,5.293647622852577
2.65,5.295645225729125
2.6510000000000002,5.297642828605673
2.652,5.299640431482221
2.653,5.301638034358769
2.654,5.303635637235317
2.6550000000000002,5.305633240111865
2.656,5.307630842988414
2.657,5.309628445864962
2.658,5.31162604874151
2.6590000000000003,5.313623651618058
2.66,5.315621254494606
2.661,5.317618857371154
2.662,5.319616460247702
2.6630000000000003,5.32161406312425
2.664,5.323611666000798
2.665,5.325609268877346
2.666,5.327606871753895
2.6670000000000003,5.329604474630443
2.668,5.331602077506991
2.669,5.333599680383539
2.67,5.335597283260087
2.6710000000000003,5.337594886136635
2.672,5.339592489013183
2.673,5.341590091889731
2.674,5.34358769476628
2.6750000000000003,5.345585297642828
2.676,5.3475829005193765
2.677,5.3495805033959245
2.678,5.3515781062724725
2.6790000000000003,5.353575709149021
2.68,5.355573312025569
2.681,5.357570914902117
2.682,5.359568517778665
2.6830000000000003,5.361566120655213
2.684,5.363563723531762
2.685,5.36556132640831
2.686,5.367558929284858
2.6870000000000003,5.369556532161406
2.688,5.371554135037954
2.689,5.373551737914502
2.69,5.37554934079105
2.691,5.377546943667598
2.692,5.379544546544146
2.693,5.381542149420695
2.694,5.383539752297243
2.695,5.385537355173791
2.696,5.387534958050339
2.697,5.389532560926887
2.698,5.391530163803435
2.699,5.393527766679983
2.7,5.395525369556531
2.701,5.397522972433079
2.702,5.399520575309628
2.703,5.401518178186176
2.704,5.403515781062724
2.705,5.405513383939272
2.706,5.40751098681582
2.707,5.4095085896923685
2.708,5.4115061925689165
2.709,5.413503795445465
2.71,5.415501398322013
2.711,5.4174990011985615
2.712,5.41949660407511
2.713,5.421494206951658
2.714,5.423491809828206
2.715,5.425489412704754
2.716,5.427487015581302
2.717,5.42948461845785
2.718,5.431482221334398
2.719,5.433479824210946
2.72,5.435477427087495
2.721,5.437475029964043
2.722,5.439472632840591
2.723,5.441470235717139
2.724,5.443467838593687
2.725,5.445465441470235
2.726,5.447463044346783
2.727,5.449460647223331
2.728,5.451458250099879
2.729,5.453455852976428
2.73,5.455453455852976
2.731,5.457451058729524
2.732,5.459448661606072
2.733,5.46144626448262
2.734,5.463443867359168
2.735,5.465441470235716
2.736,5.467439073112264
2.737,5.4694366759888124
2.738,5.471434278865361
2.739,5.473431881741909
2.74,5.4754294846184575
2.741,5.4774270874950055
2.742,5.4794246903715536
2.743,5.481422293248102
2.744,5.48341989612465
2.745,5.485417499001198
2.746,5.487415101877746
2.747,5.489412704754295
2.748,5.491410307630843
2.749,5.493407910507391
2.75,5.495405513383939
2.751,5.497403116260487
2.7520000000000002,5.499400719137035
2.753,5.501398322013583
2.754,5.503395924890131
2.755,5.505393527766679
2.7560000000000002,5.507391130643228
2.757,5.509388733519776
2.758,5.511386336396324
2.759,5.513383939272872
2.7600000000000002,5.51538154214942
2.761,5.517379145025968
2.762,5.519376747902516
2.763,5.521374350779064
2.7640000000000002,5.523371953655612
2.765,5.525369556532161
2.766,5.527367159408709
2.767,5.529364762285257
2.7680000000000002,5.531362365161805
2.769,5.533359968038353
2.77,5.535357570914901
2.771,5.5373551737914495
2.7720000000000002,5.5393527766679975
2.773,5.541350379544546
2.774,5.543347982421095
2.775,5.5453455852976425
2.7760000000000002,5.547343188174191
2.777,5.549340791050739
2.778,5.551338393927287
2.779,5.553335996803835
2.7800000000000002,5.555333599680383
2.781,5.557331202556931
2.782,5.559328805433479
2.783,5.561326408310028
2.7840000000000003,5.563324011186576
2.785,5.565321614063124
2.786,5.567319216939672
2.787,5.56931681981622
2.7880000000000003,5.571314422692768
2.789,5.573312025569316
2.79,5.575309628445864
2.791,5.577307231322412
2.7920000000000003,5.579304834198961
2.793,5.581302437075509
2.794,5.583300039952057
2.795,5.585297642828605
2.7960000000000003,5.587295245705153
2.797,5.589292848581701
2.798,5.591290451458249
2.799,5.593288054334797
2.8000000000000003,5.595285657211345
2.801,5.597283260087894
2.802,5.599280862964442
2.803,5.60127846584099
2.8040000000000003,5.6032760687175385
2.805,5.605273671594087
2.806,5.607271274470635
2.807,5.609268877347183
2.8080000000000003,5.611266480223731
2.809,5.613264083100279
2.81,5.615261685976828
2.811,5.617259288853376
2.8120000000000003,5.619256891729924
2.813,5.621254494606472
2.814,5.62325209748302
2.815,5.625249700359568
2.816,5.627247303236116
2.817,5.629244906112664
2.818,5.631242508989212
2.819,5.633240111865761
2.82,5.635237714742309
2.821,5.637235317618857
2.822,5.639232920495405
2.823,5.641230523371953
2.824,5.643228126248501
2.825,5.645225729125049
2.826,5.647223332001597
2.827,5.649220934878145
2.828,5.651218537754694
2.829,5.653216140631242
2.83,5.65521374350779
2.831,5.657211346384338
2.832,5.659208949260886
2.833,5.661206552137434
2.834,5.663204155013982
2.835,5.6652017578905305
2.836,5.667199360767079
2.837,5.669196963643628
2.838,5.671194566520176
2.839,5.673192169396724
2.84,5.675189772273272
2.841,5.67718737514982
2.842,5.679184978026368
2.843,5.681182580902916
2.844,5.683180183779464
2.845,5.685177786656012
2.846,5.687175389532561
2.847,5.689172992409109
2.848,5.691170595285657
2.849,5.693168198162205
2.85,5.695165801038753
2.851,5.697163403915301
2.852,5.699161006791849
2.853,5.701158609668397
2.854,5.703156212544945
2.855,5.705153815421494
2.856,5.707151418298042
2.857,5.70914902117459
2.858,5.711146624051138
2.859,5.713144226927686
2.86,5.715141829804234
2.861,5.717139432680782
2.862,5.71913703555733
2.863,5.721134638433878
2.864,5.723132241310427
2.865,5.725129844186975
2.866,5.727127447063523
2.867,5.729125049940071
2.868,5.73112265281662
2.869,5.733120255693168
2.87,5.735117858569716
2.871,5.737115461446264
2.872,5.739113064322812
2.873,5.741110667199361
2.874,5.743108270075909
2.875,5.745105872952457
2.876,5.747103475829005
2.8770000000000002,5.749101078705553
2.878,5.751098681582101
2.879,5.753096284458649
2.88,5.755093887335197
2.8810000000000002,5.757091490211745
2.882,5.759089093088294
2.883,5.761086695964842
2.884,5.76308429884139
2.8850000000000002,5.765081901717938
2.886,5.767079504594486
2.887,5.769077107471034
2.888,5.771074710347582
2.8890000000000002,5.77307231322413
2.89,5.775069916100678
2.891,5.777067518977227
2.892,5.779065121853775
2.8930000000000002,5.781062724730323
2.894,5.783060327606871
2.895,5.785057930483419
2.896,5.787055533359967
2.8970000000000002,5.789053136236515
2.898,5.791050739113064
2.899,5.793048341989612
2.9,5.79504594486616
2.9010000000000002,5.7970435477427085
2.902,5.7990411506192565
2.903,5.801038753495805
2.904,5.803036356372353
2.9050000000000002,5.805033959248901
2.906,5.807031562125449
2.907,5.809029165001997
2.908,5.811026767878545
2.9090000000000003,5.813024370755094
2.91,5.815021973631642
2.911,5.81701957650819
2.912,5.819017179384738
2.9130000000000003,5.821014782261286
2.914,5.823012385137834
2.915,5.825009988014382
2.916,5.82700759089093
2.9170000000000003,5.829005193767478
2.918,5.831002796644027
2.919,5.833000399520575
2.92,5.834998002397123
2.9210000000000003,5.836995605273671
2.922,5.838993208150219
2.923,5.840990811026767
2.924,5.842988413903315
2.9250000000000003,5.844986016779863
2.926,5.846983619656411
2.927,5.84898122253296
2.928,5.850978825409508
2.9290000000000003,5.852976428286056
2.93,5.854974031162604
2.931,5.856971634039152
2.932,5.8589692369157005
2.9330000000000003,5.8609668397922485
2.934,5.862964442668797
2.935,5.864962045545345
2.936,5.8669596484218935
2.9370000000000003,5.868957251298442
2.938,5.87095485417499
2.939,5.872952457051538
2.94,5.874950059928086
2.9410000000000003,5.876947662804634
2.942,5.878945265681182
2.943,5.88094286855773
2.944,5.882940471434278
2.945,5.884938074310827
2.946,5.886935677187375
2.947,5.888933280063923
2.948,5.890930882940471
2.949,5.892928485817019
2.95,5.894926088693567
2.951,5.896923691570115
2.952,5.898921294446663
2.953,5.900918897323211
2.954,5.90291650019976
2.955,5.904914103076308
2.956,5.906911705952856
2.957,5.908909308829404
2.958,5.910906911705952
2.959,5.9129045145825
2.96,5.914902117459048
2.961,5.916899720335596
2.962,5.9188973232121445
2.963,5.920894926088693
2.964,5.922892528965241
2.965,5.9248901318417895
2.966,5.9268877347183375
2.967,5.928885337594886
2.968,5.930882940471434
2.969,5.932880543347982
2.97,5.93487814622453
2.971,5.936875749101078
2.972,5.938873351977627
2.973,5.940870954854175
2.974,5.942868557730723
2.975,5.944866160607271
2.976,5.946863763483819
2.977,5.948861366360367
2.978,5.950858969236915
2.979,5.952856572113463
2.98,5.954854174990011
2.981,5.95685177786656
2.982,5.958849380743108
2.983,5.960846983619656
2.984,5.962844586496204
2.985,5.964842189372752
2.986,5.9668397922493
2.987,5.968837395125848
2.988,5.970834998002396
2.989,5.972832600878944
2.99,5.974830203755493
2.991,5.976827806632041
2.992,5.978825409508589
2.993,5.980823012385137
2.994,5.982820615261685
2.995,5.9848182181382334
2.996,5.9868158210147815
2.997,5.9888134238913295
2.998,5.990811026767878
2.999,5.9928086296444265
3.0,5.994806232520975
3.001,5.996803835397523
3.0020000000000002,5.998801438274071
3.003,6.000799041150619
3.004,6.002796644027167
3.005,6.004794246903715
3.0060000000000002,6.006791849780263
3.007,6.008789452656811
3.008,6.01078705553336
3.009,6.012784658409908
3.0100000000000002,6.014782261286456
3.011,6.016779864163004
3.012,6.018777467039552
3.013,6.0207750699161
3.0140000000000002,6.022772672792648
3.015,6.024770275669196
3.016,6.026767878545744
3.017,6.028765481422293
3.0180000000000002,6.030763084298841
3.019,6.032760687175389
3.02,6.034758290051937
3.021,6.036755892928485
3.0220000000000002,6.038753495805033
3.023,6.040751098681581
3.024,6.042748701558129
3.025,6.044746304434677
3.0260000000000002,6.046743907311226
3.027,6.048741510187774
3.028,6.050739113064322
3.029,6.052736715940871
3.0300000000000002,6.0547343188174185
3.031,6.056731921693967
3.032,6.058729524570515
3.033,6.060727127447063
3.0340000000000003,6.062724730323611
3.035,6.06472233320016
3.036,6.066719936076708
3.037,6.068717538953256
3.0380000000000003,6.070715141829804
3.039,6.072712744706352
3.04,6.0747103475829
3.041,6.076707950459448
3.0420000000000003,6.078705553335996
3.043,6.080703156212544
3.044,6.082700759089093
3.045,6.084698361965641
3.0460000000000003,6.086695964842189
3.047,6.088693567718737
3.048,6.090691170595285
3.049,6.092688773471833
3.0500000000000003,6.094686376348381
3.051,6.096683979224929
3.052,6.098681582101477
3.053,6.100679184978026
3.0540000000000003,6.102676787854574
3.055,6.104674390731122
3.056,6.10667199360767
3.057,6.108669596484218
3.0580000000000003,6.110667199360766
3.059,6.1126648022373145
3.06,6.114662405113863
3.061,6.1166600079904105
3.0620000000000003,6.11865761086696
3.063,6.120655213743508
3.064,6.122652816620056
3.065,6.124650419496604
3.0660000000000003,6.126648022373152
3.067,6.1286456252497
3.068,6.130643228126248
3.069,6.132640831002796
3.0700000000000003,6.134638433879344
3.071,6.136636036755892
3.072,6.138633639632441
3.073,6.140631242508989
3.074,6.142628845385537
3.075,6.144626448262085
3.076,6.146624051138633
3.077,6.148621654015181
3.078,6.150619256891729
3.079,6.152616859768277
3.08,6.154614462644825
3.081,6.156612065521374
3.082,6.158609668397922
3.083,6.16060727127447
3.084,6.162604874151018
3.085,6.164602477027566
3.086,6.166600079904114
3.087,6.168597682780662
3.088,6.17059528565721
3.089,6.172592888533758
3.09,6.174590491410307
3.091,6.176588094286855
3.092,6.1785856971634034
3.093,6.180583300039952
3.094,6.1825809029165
3.095,6.184578505793048
3.096,6.186576108669596
3.097,6.188573711546144
3.098,6.190571314422692
3.099,6.192568917299241
3.1,6.194566520175789
3.101,6.196564123052337
3.102,6.198561725928885
3.103,6.200559328805433
3.104,6.202556931681981
3.105,6.204554534558529
3.106,6.206552137435077
3.107,6.208549740311625
3.108,6.210547343188174
3.109,6.212544946064722
3.11,6.21454254894127
3.111,6.216540151817818
3.112,6.218537754694366
3.113,6.220535357570914
3.114,6.222532960447462
3.115,6.22453056332401
3.116,6.226528166200558
3.117,6.228525769077107
3.118,6.230523371953655
3.119,6.232520974830203
3.12,6.234518577706751
3.121,6.236516180583299
3.122,6.238513783459847
3.123,6.240511386336396
3.124,6.242508989212944
3.125,6.244506592089492
3.126,6.2465041949660405
3.1270000000000002,6.2485017978425885
3.128,6.250499400719137
3.129,6.252497003595685
3.13,6.254494606472233
3.1310000000000002,6.256492209348781
3.132,6.258489812225329
3.133,6.260487415101877
3.134,6.262485017978425
3.1350000000000002,6.264482620854974
3.136,6.266480223731522
3.137,6.26847782660807
3.138,6.270475429484618
3.1390000000000002,6.272473032361166
3.14,6.274470635237714
3.141,6.276468238114262
3.142,6.27846584099081
3.1430000000000002,6.280463443867358
3.144,6.282461046743907
3.145,6.284458649620455
3.146,6.286456252497003
3.1470000000000002,6.288453855373551
3.148,6.290451458250099
3.149,6.292449061126647
3.15,6.294446664003195
3.1510000000000002,6.296444266879743
3.152,6.298441869756291
3.153,6.30043947263284
3.154,6.302437075509388
3.1550000000000002,6.304434678385936
3.156,6.3064322812624845
3.157,6.3084298841390325
3.158,6.3104274870155805
3.1590000000000003,6.312425089892129
3.16,6.314422692768677
3.161,6.316420295645225
3.162,6.318417898521774
3.1630000000000003,6.320415501398322
3.164,6.32241310427487
3.165,6.324410707151418
3.166,6.326408310027966
3.1670000000000003,6.328405912904514
3.168,6.330403515781062
3.169,6.33240111865761
3.17,6.334398721534158
3.1710000000000003,6.336396324410707
3.172,6.338393927287255
3.173,6.340391530163803
3.174,6.342389133040351
3.1750000000000003,6.344386735916899
3.176,6.346384338793447
3.177,6.348381941669995
3.178,6.350379544546543
3.1790000000000003,6.352377147423091
3.18,6.35437475029964
3.181,6.356372353176188
3.182,6.358369956052736
3.1830000000000003,6.360367558929284
3.184,6.362365161805832
3.185,6.36436276468238
3.186,6.366360367558928
3.1870000000000003,6.3683579704354765
3.188,6.3703555733120245
3.189,6.372353176188573
3.19,6.3743507790651215
3.1910000000000003,6.3763483819416695
3.192,6.378345984818218
3.193,6.380343587694766
3.194,6.382341190571314
3.1950000000000003,6.384338793447862
3.196,6.38633639632441
3.197,6.388333999200958
3.198,6.390331602077507
3.1990000000000003,6.392329204954055
3.2,6.394326807830603
3.201,6.396324410707151
3.202,6.398322013583699
3.203,6.400319616460247
3.204,6.402317219336795
3.205,6.404314822213343
3.206,6.406312425089891
3.207,6.40831002796644
3.208,6.410307630842988
3.209,6.412305233719536
3.21,6.414302836596084
3.211,6.416300439472632
3.212,6.41829804234918
3.213,6.420295645225728
3.214,6.422293248102276
3.215,6.424290850978824
3.216,6.426288453855373
3.217,6.428286056731921
3.218,6.430283659608469
3.219,6.432281262485017
3.22,6.4342788653615655
3.221,6.4362764682381135
3.222,6.4382740711146615
3.223,6.44027167399121
3.224,6.442269276867758
3.225,6.444266879744307
3.226,6.446264482620855
3.227,6.448262085497403
3.228,6.450259688373951
3.229,6.452257291250499
3.23,6.454254894127047
3.231,6.456252497003595
3.232,6.458250099880143
3.233,6.460247702756691
3.234,6.46224530563324
3.235,6.464242908509788
3.236,6.466240511386336
3.237,6.468238114262884
3.238,6.470235717139432
3.239,6.47223332001598
3.24,6.474230922892528
3.241,6.476228525769076
3.242,6.478226128645624
3.243,6.480223731522173
3.244,6.482221334398721
3.245,6.484218937275269
3.246,6.486216540151817
3.247,6.488214143028365
3.248,6.490211745904913
3.249,6.492209348781461
3.25,6.494206951658009
3.251,6.4962045545345575
3.2520000000000002,6.498202157411106
3.253,6.5001997602876544
3.254,6.5021973631642025
3.255,6.504194966040751
3.2560000000000002,6.506192568917299
3.257,6.508190171793847
3.258,6.510187774670395
3.259,6.512185377546943
3.2600000000000002,6.514182980423491
3.261,6.51618058330004
3.262,6.518178186176588
3.263,6.520175789053136
3.2640000000000002,6.522173391929684
3.265,6.524170994806232
3.266,6.52616859768278
3.267,6.528166200559328
3.2680000000000002,6.530163803435876
3.269,6.532161406312424
3.27,6.534159009188973
3.271,6.536156612065521
3.2720000000000002,6.538154214942069
3.273,6.540151817818617
3.274,6.542149420695165
3.275,6.544147023571713
3.2760000000000002,6.546144626448261
3.277,6.548142229324809
3.278,6.550139832201357
3.279,6.552137435077906
3.2800000000000002,6.554135037954454
3.281,6.556132640831002
3.282,6.55813024370755
3.283,6.560127846584098
3.2840000000000003,6.562125449460647
3.285,6.5641230523371945
3.286,6.566120655213743
3.287,6.568118258090291
3.2880000000000003,6.57011586096684
3.289,6.572113463843388
3.29,6.574111066719936
3.291,6.576108669596484
3.2920000000000003,6.578106272473032
3.293,6.58010387534958
3.294,6.582101478226128
3.295,6.584099081102676
3.2960000000000003,6.586096683979224
3.297,6.588094286855773
3.298,6.590091889732321
3.299,6.592089492608869
3.3000000000000003,6.594087095485417
3.301,6.596084698361965
3.302,6.598082301238513
3.303,6.600079904115061
3.3040000000000003,6.602077506991609
3.305,6.604075109868157
3.306,6.606072712744706
3.307,6.608070315621254
3.3080000000000003,6.610067918497802
3.309,6.61206552137435
3.31,6.614063124250898
3.311,6.616060727127446
3.3120000000000003,6.618058330003994
3.313,6.620055932880542
3.314,6.62205353575709
3.315,6.624051138633639
3.3160000000000003,6.626048741510187
3.317,6.628046344386736
3.318,6.630043947263284
3.319,6.632041550139832
3.3200000000000003,6.63403915301638
3.321,6.636036755892928
3.322,6.638034358769476
3.323,6.640031961646024
3.3240000000000003,6.642029564522573
3.325,6.644027167399121
3.326,6.646024770275669
3.327,6.648022373152217
3.3280000000000003,6.650019976028765
3.329,6.652017578905313
3.33,6.654015181781861
3.331,6.656012784658409
3.332,6.658010387534957
3.333,6.660007990411506
3.334,6.662005593288054
3.335,6.664003196164602
3.336,6.66600079904115
3.337,6.667998401917698
3.338,6.669996004794246
3.339,6.671993607670794
3.34,6.673991210547342
3.341,6.67598881342389
3.342,6.677986416300439
3.343,6.679984019176987
3.344,6.681981622053535
3.345,6.683979224930083
3.346,6.685976827806631
3.347,6.687974430683179
3.348,6.689972033559728
3.349,6.691969636436276
3.35,6.693967239312824
3.351,6.6959648421893725
3.352,6.6979624450659205
3.353,6.699960047942469
3.354,6.701957650819017
3.355,6.703955253695565
3.356,6.705952856572113
3.357,6.707950459448661
3.358,6.709948062325209
3.359,6.711945665201757
3.36,6.713943268078306
3.361,6.715940870954854
3.362,6.717938473831402
3.363,6.71993607670795
3.364,6.721933679584498
3.365,6.723931282461046
3.366,6.725928885337594
3.367,6.727926488214142
3.368,6.72992409109069
3.369,6.731921693967239
3.37,6.733919296843787
3.371,6.735916899720335
3.372,6.737914502596883
3.373,6.739912105473431
3.374,6.741909708349979
3.375,6.743907311226527
3.376,6.745904914103075
3.3770000000000002,6.747902516979623
3.378,6.749900119856172
3.379,6.75189772273272
3.38,6.753895325609268
3.3810000000000002,6.7558929284858165
3.382,6.7578905313623645
3.383,6.7598881342389125
3.384,6.761885737115461
3.3850000000000002,6.763883339992009
3.386,6.765880942868557
3.387,6.767878545745106
3.388,6.769876148621654
3.3890000000000002,6.771873751498202
3.39,6.77387135437475
3.391,6.775868957251298
3.392,6.777866560127846
3.3930000000000002,6.779864163004394
3.394,6.781861765880942
3.395,6.78385936875749
3.396,6.785856971634039
3.3970000000000002,6.787854574510587
3.398,6.789852177387135
3.399,6.791849780263683
3.4,6.793847383140231
3.4010000000000002,6.795844986016779
3.402,6.797842588893327
3.403,6.799840191769875
3.404,6.801837794646423
3.4050000000000002,6.803835397522972
3.406,6.80583300039952
3.407,6.807830603276068
3.408,6.809828206152616
3.4090000000000003,6.811825809029164
3.41,6.813823411905712
3.411,6.81582101478226
3.412,6.8178186176588085
3.4130000000000003,6.8198162205353565
3.414,6.8218138234119055
3.415,6.8238114262884535
3.416,6.8258090291650015
3.4170000000000003,6.82780663204155
3.418,6.829804234918098
3.419,6.831801837794646
3.42,6.833799440671194
3.4210000000000003,6.835797043547742
3.422,6.83779464642429
3.423,6.839792249300839
3.424,6.841789852177387
3.4250000000000003,6.843787455053935
3.426,6.845785057930483
3.427,6.847782660807031
3.428,6.849780263683579
3.4290000000000003,6.851777866560127
3.43,6.853775469436675
3.431,6.855773072313223
3.432,6.857770675189772
3.4330000000000003,6.85976827806632
3.434,6.861765880942868
3.435,6.863763483819416
3.436,6.865761086695964
3.4370000000000003,6.867758689572512
3.438,6.86975629244906
3.439,6.871753895325608
3.44,6.873751498202156
3.4410000000000003,6.875749101078705
3.442,6.877746703955253
3.443,6.879744306831801
3.444,6.881741909708349
3.4450000000000003,6.8837395125848975
3.446,6.8857371154614455
3.447,6.8877347183379936
3.448,6.889732321214542
3.4490000000000003,6.89172992409109
3.45,6.893727526967639
3.451,6.895725129844187
3.452,6.897722732720735
3.4530000000000003,6.899720335597283
3.454,6.901717938473831
3.455,6.903715541350379
3.456,6.905713144226927
3.457,6.907710747103475
3.458,6.909708349980023
3.459,6.911705952856572
3.46,6.91370355573312
3.461,6.915701158609668
3.462,6.917698761486216
3.463,6.919696364362764
3.464,6.921693967239312
3.465,6.92369157011586
3.466,6.925689172992408
3.467,6.927686775868956
3.468,6.929684378745505
3.469,6.931681981622053
3.47,6.933679584498601
3.471,6.935677187375149
3.472,6.937674790251697
3.473,6.939672393128245
3.474,6.941669996004793
3.475,6.943667598881341
3.476,6.9456652017578895
3.477,6.947662804634438
3.478,6.9496604075109865
3.479,6.951658010387535
3.48,6.9536556132640825
3.481,6.955653216140631
3.482,6.957650819017179
3.483,6.959648421893727
3.484,6.961646024770275
3.485,6.963643627646823
3.486,6.965641230523371
3.487,6.96763883339992
3.488,6.969636436276468
3.489,6.971634039153016
3.49,6.973631642029564
3.491,6.975629244906112
3.492,6.97762684778266
3.493,6.979624450659208
3.494,6.981622053535756
3.495,6.983619656412304
3.496,6.985617259288853
3.497,6.987614862165401
3.498,6.989612465041949
3.499,6.991610067918497
3.5,6.993607670795045
3.501,6.995605273671593
3.5020000000000002,6.997602876548141
3.503,6.999600479424689
3.504,7.001598082301237
3.505,7.003595685177786
3.5060000000000002,7.005593288054334
3.507,7.007590890930882
3.508,7.00958849380743
3.509,7.0115860966839785
3.5100000000000002,7.013583699560527
3.511,7.015581302437075
3.512,7.017578905313623
3.513,7.019576508190171
3.5140000000000002,7.02157411106672
3.515,7.023571713943268
3.516,7.025569316819816
3.517,7.027566919696364
3.5180000000000002,7.029564522572912
3.519,7.03156212544946
3.52,7.033559728326008
3.521,7.035557331202556
3.5220000000000002,7.037554934079104
3.523,7.039552536955653
3.524,7.041550139832201
3.525,7.043547742708749
3.5260000000000002,7.045545345585297
3.527,7.047542948461845
3.528,7.049540551338393
3.529,7.051538154214941
3.5300000000000002,7.053535757091489
3.531,7.055533359968037
3.532,7.057530962844586
3.533,7.059528565721134
3.5340000000000003,7.061526168597682
3.535,7.06352377147423
3.536,7.065521374350778
3.537,7.067518977227326
3.5380000000000003,7.069516580103874
3.539,7.0715141829804224
3.54,7.0735117858569705
3.541,7.075509388733519
3.5420000000000003,7.077506991610068
3.543,7.079504594486616
3.544,7.081502197363164
3.545,7.083499800239712
3.5460000000000003,7.08549740311626
3.547,7.087495005992808
3.548,7.089492608869356
3.549,7.091490211745904
3.5500000000000003,7.093487814622453
3.551,7.095485417499001
3.552,7.097483020375549
3.553,7.099480623252097
3.5540000000000003,7.101478226128645
3.555,7.103475829005193
3.556,7.105473431881741
3.557,7.107471034758289
3.5580000000000003,7.109468637634837
3.559,7.111466240511386
3.56,7.113463843387934
3.561,7.115461446264482
3.5620000000000003,7.11745904914103
3.563,7.119456652017578
3.564,7.121454254894126
3.565,7.123451857770674
3.5660000000000003,7.125449460647222
3.567,7.12744706352377
3.568,7.129444666400319
3.569,7.131442269276867
3.5700000000000003,7.133439872153415
3.571,7.135437475029963
3.572,7.137435077906511
3.573,7.13943268078306
3.5740000000000003,7.141430283659608
3.575,7.143427886536156
3.576,7.145425489412704
3.577,7.1474230922892525
3.5780000000000003,7.149420695165801
3.579,7.151418298042349
3.58,7.153415900918897
3.581,7.155413503795445
3.5820000000000003,7.157411106671993
3.583,7.159408709548541
3.584,7.161406312425089
3.585,7.163403915301637
3.586,7.165401518178186
3.587,7.167399121054734
3.588,7.169396723931282
3.589,7.17139432680783
3.59,7.173391929684378
3.591,7.175389532560926
3.592,7.177387135437474
3.593,7.179384738314022
3.594,7.18138234119057
3.595,7.183379944067119
3.596,7.185377546943667
3.597,7.187375149820215
3.598,7.189372752696763
3.599,7.191370355573311
3.6,7.193367958449859
3.601,7.195365561326407
3.602,7.197363164202955
3.603,7.199360767079504
3.604,7.201358369956052
3.605,7.2033559728326
3.606,7.2053535757091485
3.607,7.207351178585696
3.608,7.209348781462245
3.609,7.211346384338793
3.61,7.213343987215341
3.611,7.215341590091889
3.612,7.217339192968437
3.613,7.219336795844986
3.614,7.221334398721534
3.615,7.223332001598082
3.616,7.22532960447463
3.617,7.227327207351178
3.618,7.229324810227726
3.619,7.231322413104274
3.62,7.233320015980822
3.621,7.23531761885737
3.622,7.237315221733919
3.623,7.239312824610467
3.624,7.241310427487015
3.625,7.243308030363563
3.626,7.245305633240111
3.6270000000000002,7.247303236116659
3.628,7.249300838993207
3.629,7.251298441869755
3.63,7.253296044746303
3.6310000000000002,7.255293647622852
3.632,7.2572912504994
3.633,7.259288853375948
3.634,7.261286456252496
3.6350000000000002,7.263284059129044
3.636,7.265281662005592
3.637,7.2672792648821405
3.638,7.269276867758688
3.6390000000000002,7.271274470635237
3.64,7.2732720735117855
3.641,7.275269676388333
3.642,7.277267279264882
3.6430000000000002,7.27926488214143
3.644,7.281262485017978
3.645,7.283260087894526
3.646,7.285257690771074
3.6470000000000002,7.287255293647622
3.648,7.28925289652417
3.649,7.291250499400719
3.65,7.293248102277267
3.6510000000000002,7.295245705153815
3.652,7.297243308030363
3.653,7.299240910906911
3.654,7.301238513783459
3.6550000000000002,7.303236116660007
3.656,7.305233719536555
3.657,7.307231322413103
3.658,7.309228925289652
3.6590000000000003,7.3112265281662
3.66,7.313224131042748
3.661,7.315221733919296
3.662,7.317219336795844
3.6630000000000003,7.319216939672392
3.664,7.32121454254894
3.665,7.323212145425488
3.666,7.325209748302036
3.6670000000000003,7.327207351178585
3.668,7.329204954055133
3.669,7.331202556931681
3.67,7.333200159808229
3.6710000000000003,7.3351977626847775
3.672,7.337195365561326
3.673,7.339192968437874
3.674,7.341190571314422
3.6750000000000003,7.34318817419097
3.676,7.345185777067519
3.677,7.347183379944067
3.678,7.349180982820615
3.6790000000000003,7.351178585697163
3.68,7.353176188573711
3.681,7.355173791450259
3.682,7.357171394326807
3.6830000000000003,7.359168997203355
3.684,7.361166600079903
3.685,7.363164202956452
3.686,7.365161805833
3.6870000000000003,7.367159408709548
3.688,7.369157011586096
3.689,7.371154614462644
3.69,7.373152217339192
3.6910000000000003,7.37514982021574
3.692,7.377147423092288
3.693,7.379145025968836
3.694,7.381142628845385
3.6950000000000003,7.383140231721933
3.696,7.385137834598481
3.697,7.387135437475029
3.698,7.389133040351577
3.6990000000000003,7.391130643228125
3.7,7.3931282461046735
3.701,7.395125848981221
3.702,7.3971234518577695
3.7030000000000003,7.3991210547343185
3.704,7.401118657610866
3.705,7.403116260487415
3.706,7.405113863363963
3.7070000000000003,7.407111466240511
3.708,7.409109069117059
3.709,7.411106671993607
3.71,7.413104274870155
3.7110000000000003,7.415101877746703
3.712,7.417099480623252
3.713,7.4190970834998
3.714,7.421094686376348
3.715,7.423092289252896
3.716,7.425089892129444
3.717,7.427087495005992
3.718,7.42908509788254
3.719,7.431082700759088
3.72,7.433080303635636
3.721,7.435077906512185
3.722,7.437075509388733
3.723,7.439073112265281
3.724,7.441070715141829
3.725,7.443068318018377
3.726,7.445065920894925
3.727,7.447063523771473
3.728,7.449061126648021
3.729,7.451058729524569
3.73,7.453056332401118
3.731,7.455053935277666
3.732,7.457051538154214
3.733,7.459049141030762
3.734,7.4610467439073105
3.735,7.463044346783858
3.736,7.465041949660407
3.737,7.467039552536955
3.738,7.469037155413503
3.739,7.471034758290052
3.74,7.4730323611666
3.741,7.475029964043148
3.742,7.477027566919696
3.743,7.479025169796244
3.744,7.481022772672792
3.745,7.48302037554934
3.746,7.485017978425888
3.747,7.487015581302436
3.748,7.489013184178985
3.749,7.491010787055533
3.75,7.493008389932081
3.751,7.495005992808629
3.7520000000000002,7.497003595685177
3.753,7.499001198561725
3.754,7.500998801438273
3.755,7.502996404314821
3.7560000000000002,7.504994007191369
3.757,7.506991610067918
3.758,7.508989212944466
3.759,7.510986815821014
3.7600000000000002,7.512984418697562
3.761,7.51498202157411
3.762,7.516979624450658
3.763,7.518977227327206
3.7640000000000002,7.520974830203754
3.765,7.5229724330803025
3.766,7.524970035956851
3.767,7.526967638833399
3.7680000000000002,7.5289652417099475
3.769,7.530962844586496
3.77,7.532960447463044
3.771,7.534958050339592
3.7720000000000002,7.53695565321614
3.773,7.538953256092688
3.774,7.540950858969236
3.775,7.542948461845785
3.7760000000000002,7.544946064722333
3.777,7.546943667598881
3.778,7.548941270475429
3.779,7.550938873351977
3.7800000000000002,7.552936476228525
3.781,7.554934079105073
3.782,7.556931681981621
3.783,7.558929284858169
3.7840000000000003,7.560926887734718
3.785,7.562924490611266
3.786,7.564922093487814
3.787,7.566919696364362
3.7880000000000003,7.56891729924091
3.789,7.570914902117458
3.79,7.572912504994006
3.791,7.574910107870554
3.7920000000000003,7.576907710747102
3.793,7.578905313623651
3.794,7.580902916500199
3.795,7.582900519376747
3.7960000000000003,7.584898122253295
3.797,7.5868957251298434
3.798,7.588893328006391
3.799,7.5908909308829395
3.8000000000000003,7.592888533759488
3.801,7.594886136636036
3.802,7.596883739512584
3.803,7.598881342389133
3.8040000000000003,7.600878945265681
3.805,7.602876548142229
3.806,7.604874151018777
3.807,7.606871753895325
3.8080000000000003,7.608869356771873
3.809,7.610866959648421
3.81,7.612864562524969
3.811,7.614862165401518
3.8120000000000003,7.616859768278066
3.813,7.618857371154614
3.814,7.620854974031162
3.815,7.62285257690771
3.8160000000000003,7.624850179784258
3.817,7.626847782660806
3.818,7.628845385537354
3.819,7.630842988413902
3.8200000000000003,7.632840591290451
3.821,7.634838194166999
3.822,7.636835797043547
3.823,7.638833399920095
3.8240000000000003,7.640831002796643
3.825,7.642828605673191
3.826,7.644826208549739
3.827,7.646823811426287
3.8280000000000003,7.6488214143028355
3.829,7.650819017179384
3.83,7.652816620055932
3.831,7.65481422293248
3.8320000000000003,7.656811825809028
3.833,7.658809428685577
3.834,7.660807031562125
3.835,7.662804634438673
3.8360000000000003,7.664802237315221
3.837,7.666799840191769
3.838,7.668797443068318
3.839,7.670795045944866
3.84,7.672792648821414
3.841,7.674790251697962
3.842,7.67678785457451
3.843,7.678785457451058
3.844,7.680783060327606
3.845,7.682780663204154
3.846,7.684778266080702
3.847,7.686775868957251
3.848,7.688773471833799
3.849,7.690771074710347
3.85,7.692768677586895
3.851,7.694766280463443
3.852,7.696763883339991
3.853,7.698761486216539
3.854,7.700759089093087
3.855,7.702756691969635
3.856,7.704754294846184
3.857,7.706751897722732
3.858,7.70874950059928
3.859,7.710747103475828
3.86,7.712744706352376
3.861,7.7147423092289245
3.862,7.716739912105472
3.863,7.718737514982019
3.864,7.720735117858569
3.865,7.722732720735117
3.866,7.724730323611666
3.867,7.726727926488214
3.868,7.728725529364762
3.869,7.73072313224131
3.87,7.732720735117858
3.871,7.734718337994406
3.872,7.736715940870954
3.873,7.738713543747502
3.874,7.740711146624051
3.875,7.742708749500599
3.876,7.744706352377147
3.8770000000000002,7.746703955253695
3.878,7.748701558130243
3.879,7.750699161006791
3.88,7.752696763883339
3.8810000000000002,7.754694366759887
3.882,7.756691969636435
3.883,7.758689572512984
3.884,7.760687175389532
3.8850000000000002,7.76268477826608
3.886,7.764682381142628
3.887,7.766679984019176
3.888,7.768677586895724
3.8890000000000002,7.770675189772272
3.89,7.77267279264882
3.891,7.774670395525368
3.892,7.7766679984019165
3.8930000000000002,7.778665601278465
3.894,7.780663204155013
3.895,7.7826608070315615
3.896,7.784658409908109
3.8970000000000002,7.786656012784658
3.898,7.788653615661206
3.899,7.790651218537754
3.9,7.792648821414302
3.9010000000000002,7.79464642429085
3.902,7.796644027167399
3.903,7.798641630043947
3.904,7.800639232920495
3.9050000000000002,7.802636835797043
3.906,7.804634438673591
3.907,7.806632041550139
3.908,7.808629644426687
3.9090000000000003,7.810627247303235
3.91,7.812624850179783
3.911,7.814622453056332
3.912,7.81662005593288
3.9130000000000003,7.818617658809428
3.914,7.820615261685976
3.915,7.822612864562524
3.916,7.824610467439072
3.9170000000000003,7.82660807031562
3.918,7.828605673192168
3.919,7.830603276068716
3.92,7.832600878945265
3.9210000000000003,7.834598481821813
3.922,7.836596084698361
3.923,7.838593687574909
3.924,7.840591290451457
3.9250000000000003,7.842588893328005
3.926,7.8445864962045535
3.927,7.846584099081101
3.928,7.84858170195765
3.9290000000000003,7.8505793048341985
3.93,7.852576907710747
3.931,7.854574510587295
3.932,7.856572113463843
3.9330000000000003,7.858569716340391
3.934,7.860567319216939
3.935,7.862564922093487
3.936,7.864562524970035
3.9370000000000003,7.866560127846583
3.938,7.868557730723132
3.939,7.87055533359968
3.94,7.872552936476228
3.9410000000000003,7.874550539352776
3.942,7.876548142229324
3.943,7.878545745105872
3.944,7.88054334798242
3.9450000000000003,7.882540950858968
3.946,7.884538553735516
3.947,7.886536156612065
3.948,7.888533759488613
3.9490000000000003,7.890531362365161
3.95,7.892528965241709
3.951,7.894526568118257
3.952,7.896524170994805
3.9530000000000003,7.898521773871353
3.954,7.900519376747901
3.955,7.902516979624449
3.956,7.904514582500998
3.9570000000000003,7.906512185377546
3.958,7.9085097882540945
3.959,7.910507391130642
3.96,7.9125049940071905
3.9610000000000003,7.914502596883739
3.962,7.916500199760287
3.963,7.918497802636835
3.964,7.920495405513383
3.9650000000000003,7.922493008389932
3.966,7.92449061126648
3.967,7.926488214143028
3.968,7.928485817019576
3.969,7.930483419896124
3.97,7.932481022772672
3.971,7.93447862564922
3.972,7.936476228525768
3.973,7.938473831402316
3.974,7.940471434278865
3.975,7.942469037155413
3.976,7.944466640031961
3.977,7.946464242908509
3.978,7.948461845785057
3.979,7.950459448661605
3.98,7.952457051538153
3.981,7.954454654414701
3.982,7.956452257291249
3.983,7.958449860167798
3.984,7.960447463044346
3.985,7.962445065920894
3.986,7.964442668797442
3.987,7.96644027167399
3.988,7.968437874550538
3.989,7.9704354774270865
3.99,7.972433080303634
3.991,7.9744306831801826
3.992,7.9764282860567315
3.993,7.978425888933279
3.994,7.980423491809828
3.995,7.982421094686376
3.996,7.984418697562924
3.997,7.986416300439472
3.998,7.98841390331602
3.999,7.990411506192568
4.0,7.992409109069116
4.001,7.994406711945665
4.002,7.996404314822213
4.003,7.998401917698761
4.0040000000000004,8.000399520575309
4.005,8.002397123451857
4.006,8.004394726328405
4.007,8.006392329204953
4.008,8.008389932081501
4.009,8.01038753495805
4.01,8.012385137834597
4.011,8.014382740711145
4.0120000000000005,8.016380343587693
4.013,8.018377946464241
4.014,8.020375549340791
4.015,8.02237315221734
4.016,8.024370755093887
4.017,8.026368357970435
4.018,8.028365960846983
4.019,8.030363563723531
4.0200000000000005,8.03236116660008
4.021,8.034358769476627
4.022,8.036356372353175
4.023,8.038353975229724
4.024,8.040351578106272
4.025,8.04234918098282
4.026,8.044346783859368
4.027,8.046344386735916
4.0280000000000005,8.048341989612464
4.029,8.050339592489012
4.03,8.05233719536556
4.031,8.054334798242108
4.032,8.056332401118658
4.033,8.058330003995206
4.034,8.060327606871754
4.035,8.062325209748302
4.0360000000000005,8.06432281262485
4.037,8.066320415501398
4.038,8.068318018377946
4.039,8.070315621254494
4.04,8.072313224131042
4.041,8.07431082700759
4.042,8.076308429884138
4.043,8.078306032760686
4.0440000000000005,8.080303635637234
4.045,8.082301238513782
4.046,8.08429884139033
4.047,8.086296444266878
4.048,8.088294047143426
4.049,8.090291650019974
4.05,8.092289252896524
4.051,8.094286855773072
4.0520000000000005,8.09628445864962
4.053,8.098282061526168
4.054,8.100279664402716
4.055,8.102277267279264
4.056,8.104274870155812
4.057,8.10627247303236
4.058,8.108270075908909
4.059,8.110267678785457
4.0600000000000005,8.112265281662005
4.061,8.114262884538553
4.062,8.1162604874151
4.063,8.118258090291649
4.064,8.120255693168197
4.065,8.122253296044745
4.066,8.124250898921293
4.067,8.126248501797841
4.0680000000000005,8.12824610467439
4.069,8.130243707550939
4.07,8.132241310427487
4.071,8.134238913304035
4.072,8.136236516180583
4.073,8.138234119057131
4.074,8.140231721933679
4.075,8.142229324810227
4.0760000000000005,8.144226927686775
4.077,8.146224530563323
4.078,8.148222133439871
4.079,8.15021973631642
4.08,8.152217339192967
4.081,8.154214942069515
4.082,8.156212544946063
4.083,8.158210147822611
4.0840000000000005,8.16020775069916
4.085,8.162205353575708
4.086,8.164202956452257
4.087,8.166200559328805
4.088,8.168198162205353
4.089,8.170195765081901
4.09,8.17219336795845
4.091,8.174190970834998
4.0920000000000005,8.176188573711546
4.093,8.178186176588094
4.094,8.180183779464642
4.095,8.18218138234119
4.096,8.184178985217738
4.097,8.186176588094286
4.098,8.188174190970834
4.099,8.190171793847382
4.1,8.19216939672393
4.101,8.194166999600478
4.102,8.196164602477026
4.103,8.198162205353574
4.104,8.200159808230122
4.105,8.202157411106672
4.106,8.20415501398322
4.107,8.206152616859768
4.108,8.208150219736316
4.109,8.210147822612864
4.11,8.212145425489412
4.111,8.21414302836596
4.112,8.216140631242508
4.113,8.218138234119056
4.114,8.220135836995604
4.115,8.222133439872152
4.116,8.2241310427487
4.117,8.226128645625248
4.118,8.228126248501797
4.119,8.230123851378345
4.12,8.232121454254893
4.121,8.23411905713144
4.122,8.236116660007989
4.123,8.238114262884539
4.124,8.240111865761087
4.125,8.242109468637635
4.126,8.244107071514183
4.127,8.24610467439073
4.128,8.248102277267279
4.1290000000000004,8.250099880143827
4.13,8.252097483020375
4.131,8.254095085896923
4.132,8.256092688773471
4.133,8.258090291650019
4.134,8.260087894526567
4.135,8.262085497403115
4.136,8.264083100279663
4.1370000000000005,8.266080703156211
4.138,8.26807830603276
4.139,8.270075908909307
4.14,8.272073511785855
4.141,8.274071114662405
4.142,8.276068717538953
4.143,8.278066320415501
4.144,8.28006392329205
4.1450000000000005,8.282061526168597
4.146,8.284059129045145
4.147,8.286056731921693
4.148,8.288054334798241
4.149,8.29005193767479
4.15,8.292049540551337
4.151,8.294047143427886
4.152,8.296044746304434
4.1530000000000005,8.298042349180982
4.154,8.30003995205753
4.155,8.302037554934078
4.156,8.304035157810626
4.157,8.306032760687174
4.158,8.308030363563722
4.159,8.310027966440272
4.16,8.31202556931682
4.1610000000000005,8.314023172193368
4.162,8.316020775069916
4.163,8.318018377946464
4.164,8.320015980823012
4.165,8.32201358369956
4.166,8.324011186576108
4.167,8.326008789452656
4.168,8.328006392329204
4.1690000000000005,8.330003995205752
4.17,8.3320015980823
4.171,8.333999200958848
4.172,8.335996803835396
4.173,8.337994406711944
4.174,8.339992009588492
4.175,8.34198961246504
4.176,8.343987215341588
4.1770000000000005,8.345984818218138
4.178,8.347982421094686
4.179,8.349980023971234
4.18,8.351977626847782
4.181,8.35397522972433
4.182,8.355972832600878
4.183,8.357970435477426
4.184,8.359968038353975
4.1850000000000005,8.361965641230523
4.186,8.36396324410707
4.187,8.365960846983619
4.188,8.367958449860167
4.189,8.369956052736715
4.19,8.371953655613263
4.191,8.37395125848981
4.192,8.375948861366359
4.1930000000000005,8.377946464242907
4.194,8.379944067119455
4.195,8.381941669996005
4.196,8.383939272872553
4.197,8.3859368757491
4.198,8.387934478625649
4.199,8.389932081502197
4.2,8.391929684378745
4.2010000000000005,8.393927287255293
4.202,8.395924890131841
4.203,8.397922493008389
4.204,8.399920095884937
4.205,8.401917698761485
4.206,8.403915301638033
4.207,8.405912904514581
4.208,8.40791050739113
4.2090000000000005,8.409908110267677
4.21,8.411905713144225
4.211,8.413903316020773
4.212,8.415900918897322
4.213,8.417898521773871
4.214,8.41989612465042
4.215,8.421893727526967
4.216,8.423891330403515
4.2170000000000005,8.425888933280063
4.218,8.427886536156612
4.219,8.42988413903316
4.22,8.431881741909708
4.221,8.433879344786256
4.222,8.435876947662804
4.223,8.437874550539352
4.224,8.4398721534159
4.225,8.441869756292448
4.226,8.443867359168996
4.227,8.445864962045544
4.228,8.447862564922092
4.229,8.44986016779864
4.23,8.451857770675188
4.231,8.453855373551738
4.232,8.455852976428286
4.233,8.457850579304834
4.234,8.459848182181382
4.235,8.46184578505793
4.236,8.463843387934478
4.237,8.465840990811026
4.238,8.467838593687574
4.239,8.469836196564122
4.24,8.47183379944067
4.241,8.473831402317218
4.242,8.475829005193766
4.243,8.477826608070314
4.244,8.479824210946862
4.245,8.48182181382341
4.246,8.483819416699959
4.247,8.485817019576507
4.248,8.487814622453055
4.249,8.489812225329604
4.25,8.491809828206152
4.251,8.4938074310827
4.252,8.495805033959249
4.253,8.497802636835797
4.2540000000000004,8.499800239712345
4.255,8.501797842588893
4.256,8.50379544546544
4.257,8.505793048341989
4.258,8.507790651218537
4.259,8.509788254095085
4.26,8.511785856971633
4.261,8.513783459848181
4.2620000000000005,8.515781062724729
4.263,8.517778665601277
4.264,8.519776268477825
4.265,8.521773871354373
4.266,8.523771474230921
4.267,8.525769077107471
4.268,8.527766679984019
4.269,8.529764282860567
4.2700000000000005,8.531761885737115
4.271,8.533759488613663
4.272,8.535757091490211
4.273,8.53775469436676
4.274,8.539752297243307
4.275,8.541749900119855
4.276,8.543747502996403
4.277,8.545745105872951
4.2780000000000005,8.5477427087495
4.279,8.549740311626048
4.28,8.551737914502596
4.281,8.553735517379144
4.282,8.555733120255692
4.283,8.55773072313224
4.284,8.559728326008788
4.285,8.561725928885338
4.2860000000000005,8.563723531761886
4.287,8.565721134638434
4.288,8.567718737514982
4.289,8.56971634039153
4.29,8.571713943268078
4.291,8.573711546144626
4.292,8.575709149021174
4.293,8.577706751897722
4.2940000000000005,8.57970435477427
4.295,8.581701957650818
4.296,8.583699560527366
4.297,8.585697163403914
4.298,8.587694766280462
4.299,8.58969236915701
4.3,8.591689972033558
4.301,8.593687574910106
4.3020000000000005,8.595685177786654
4.303,8.597682780663204
4.304,8.599680383539752
4.305,8.6016779864163
4.306,8.603675589292848
4.307,8.605673192169396
4.308,8.607670795045944
4.309,8.609668397922492
4.3100000000000005,8.61166600079904
4.311,8.613663603675588
4.312,8.615661206552137
4.313,8.617658809428685
4.314,8.619656412305233
4.315,8.62165401518178
4.316,8.623651618058329
4.317,8.625649220934877
4.3180000000000005,8.627646823811425
4.319,8.629644426687973
4.32,8.63164202956452
4.321,8.63363963244107
4.322,8.635637235317619
4.323,8.637634838194167
4.324,8.639632441070715
4.325,8.641630043947263
4.3260000000000005,8.643627646823811
4.327,8.645625249700359
4.328,8.647622852576907
4.329,8.649620455453455
4.33,8.651618058330003
4.331,8.653615661206551
4.332,8.6556132640831
4.333,8.657610866959647
4.3340000000000005,8.659608469836195
4.335,8.661606072712743
4.336,8.663603675589291
4.337,8.66560127846584
4.338,8.667598881342387
4.339,8.669596484218937
4.34,8.671594087095485
4.341,8.673591689972033
4.3420000000000005,8.675589292848581
4.343,8.67758689572513
4.344,8.679584498601677
4.345,8.681582101478226
4.346,8.683579704354774
4.347,8.685577307231322
4.348,8.68757491010787
4.349,8.689572512984418
4.3500000000000005,8.691570115860966
4.351,8.693567718737514
4.352,8.695565321614062
4.353,8.69756292449061
4.354,8.699560527367158
4.355,8.701558130243706
4.356,8.703555733120254
4.357,8.705553335996804
4.358,8.707550938873352
4.359,8.7095485417499
4.36,8.711546144626448
4.361,8.713543747502996
4.362,8.715541350379544
4.363,8.717538953256092
4.364,8.71953655613264
4.365,8.721534159009188
4.366,8.723531761885736
4.367,8.725529364762284
4.368,8.727526967638832
4.369,8.72952457051538
4.37,8.731522173391928
4.371,8.733519776268476
4.372,8.735517379145024
4.373,8.737514982021573
4.374,8.73951258489812
4.375,8.74151018777467
4.376,8.743507790651218
4.377,8.745505393527766
4.378,8.747502996404315
4.3790000000000004,8.749500599280863
4.38,8.75149820215741
4.381,8.753495805033959
4.382,8.755493407910507
4.383,8.757491010787055
4.384,8.759488613663603
4.385,8.76148621654015
4.386,8.763483819416699
4.3870000000000005,8.765481422293247
4.388,8.767479025169795
4.389,8.769476628046343
4.39,8.771474230922891
4.391,8.773471833799439
4.392,8.775469436675987
4.393,8.777467039552537
4.394,8.779464642429085
4.3950000000000005,8.781462245305633
4.396,8.783459848182181
4.397,8.785457451058729
4.398,8.787455053935277
4.399,8.789452656811825
4.4,8.791450259688373
4.401,8.793447862564921
4.402,8.79544546544147
4.4030000000000005,8.797443068318017
4.404,8.799440671194565
4.405,8.801438274071113
4.406,8.803435876947661
4.407,8.80543347982421
4.408,8.807431082700758
4.409,8.809428685577306
4.41,8.811426288453854
4.4110000000000005,8.813423891330403
4.412,8.815421494206952
4.413,8.8174190970835
4.414,8.819416699960048
4.415,8.821414302836596
4.416,8.823411905713144
4.417,8.825409508589692
4.418,8.82740711146624
4.4190000000000005,8.829404714342788
4.42,8.831402317219336
4.421,8.833399920095884
4.422,8.835397522972432
4.423,8.83739512584898
4.424,8.839392728725528
4.425,8.841390331602076
4.426,8.843387934478624
4.4270000000000005,8.845385537355172
4.428,8.84738314023172
4.429,8.84938074310827
4.43,8.851378345984818
4.431,8.853375948861366
4.432,8.855373551737914
4.433,8.857371154614462
4.434,8.85936875749101
4.4350000000000005,8.861366360367558
4.436,8.863363963244106
4.437,8.865361566120654
4.438,8.867359168997202
4.439,8.86935677187375
4.44,8.871354374750299
4.441,8.873351977626847
4.442,8.875349580503395
4.4430000000000005,8.877347183379943
4.444,8.87934478625649
4.445,8.881342389133039
4.446,8.883339992009587
4.447,8.885337594886137
4.448,8.887335197762685
4.449,8.889332800639233
4.45,8.89133040351578
4.4510000000000005,8.893328006392329
4.452,8.895325609268877
4.453,8.897323212145425
4.454,8.899320815021973
4.455,8.901318417898521
4.456,8.903316020775069
4.457,8.905313623651617
4.458,8.907311226528165
4.4590000000000005,8.909308829404713
4.46,8.911306432281261
4.461,8.91330403515781
4.462,8.915301638034357
4.463,8.917299240910905
4.464,8.919296843787453
4.465,8.921294446664003
4.466,8.923292049540551
4.4670000000000005,8.9252896524171
4.468,8.927287255293647
4.469,8.929284858170195
4.47,8.931282461046743
4.471,8.933280063923291
4.472,8.93527766679984
4.473,8.937275269676388
4.474,8.939272872552936
4.4750000000000005,8.941270475429484
4.476,8.943268078306032
4.477,8.94526568118258
4.478,8.947263284059128
4.479,8.949260886935676
4.48,8.951258489812224
4.481,8.953256092688772
4.482,8.95525369556532
4.483,8.95725129844187
4.484,8.959248901318418
4.485,8.961246504194966
4.486,8.963244107071514
4.487,8.965241709948062
4.488,8.96723931282461
4.489,8.969236915701158
4.49,8.971234518577706
4.491,8.973232121454254
4.492,8.975229724330802
4.493,8.97722732720735
4.494,8.979224930083898
4.495,8.981222532960446
4.496,8.983220135836994
4.497,8.985217738713542
4.498,8.98721534159009
4.499,8.989212944466638
4.5,8.991210547343186
4.501,8.993208150219736
4.502,8.995205753096284
4.503,8.997203355972832
4.5040000000000004,8.99920095884938
4.505,9.001198561725928
4.506,9.003196164602477
4.507,9.005193767479025
4.508,9.007191370355573
4.509,9.00918897323212
4.51,9.011186576108669
4.511,9.013184178985217
4.5120000000000005,9.015181781861765
4.513,9.017179384738313
4.514,9.01917698761486
4.515,9.021174590491407
4.516,9.023172193367955
4.517,9.025169796244503
4.518,9.027167399121051
4.519,9.0291650019976
4.5200000000000005,9.031162604874153
4.521,9.0331602077507
4.522,9.035157810627249
4.523,9.037155413503797
4.524,9.039153016380345
4.525,9.041150619256891
4.526,9.04314822213344
4.527,9.045145825009987
4.5280000000000005,9.047143427886535
4.529,9.049141030763083
4.53,9.051138633639631
4.531,9.05313623651618
4.532,9.055133839392727
4.533,9.057131442269275
4.534,9.059129045145824
4.535,9.061126648022372
4.5360000000000005,9.06312425089892
4.537,9.065121853775468
4.538,9.067119456652016
4.539,9.069117059528566
4.54,9.071114662405114
4.541,9.073112265281662
4.542,9.07510986815821
4.543,9.077107471034758
4.5440000000000005,9.079105073911306
4.545,9.081102676787854
4.546,9.083100279664402
4.547,9.08509788254095
4.548,9.087095485417498
4.549,9.089093088294046
4.55,9.091090691170594
4.551,9.093088294047142
4.5520000000000005,9.09508589692369
4.553,9.097083499800238
4.554,9.099081102676786
4.555,9.101078705553334
4.556,9.103076308429884
4.557,9.105073911306432
4.558,9.10707151418298
4.559,9.109069117059528
4.5600000000000005,9.111066719936076
4.561,9.113064322812624
4.562,9.115061925689172
4.563,9.11705952856572
4.564,9.119057131442268
4.565,9.121054734318816
4.566,9.123052337195364
4.567,9.125049940071913
4.5680000000000005,9.12704754294846
4.569,9.129045145825009
4.57,9.131042748701557
4.571,9.133040351578105
4.572,9.135037954454653
4.573,9.1370355573312
4.574,9.13903316020775
4.575,9.1410307630843
4.5760000000000005,9.143028365960848
4.577,9.145025968837396
4.578,9.147023571713945
4.579,9.14902117459049
4.58,9.15101877746704
4.581,9.153016380343589
4.582,9.155013983220137
4.583,9.157011586096685
4.5840000000000005,9.159009188973233
4.585,9.16100679184978
4.586,9.163004394726329
4.587,9.165001997602875
4.588,9.166999600479423
4.589,9.168997203355971
4.59,9.17099480623252
4.591,9.172992409109067
4.5920000000000005,9.174990011985615
4.593,9.176987614862163
4.594,9.178985217738711
4.595,9.18098282061526
4.596,9.18298042349181
4.597,9.184978026368356
4.598,9.186975629244904
4.599,9.188973232121452
4.6000000000000005,9.190970834998
4.601,9.19296843787455
4.602,9.194966040751098
4.603,9.196963643627646
4.604,9.198961246504194
4.605,9.200958849380742
4.606,9.20295645225729
4.607,9.204954055133838
4.6080000000000005,9.206951658010386
4.609,9.208949260886934
4.61,9.210946863763484
4.611,9.212944466640032
4.612,9.21494206951658
4.613,9.216939672393128
4.614,9.218937275269676
4.615,9.220934878146224
4.616,9.222932481022772
4.617,9.22493008389932
4.618,9.226927686775868
4.619,9.228925289652416
4.62,9.230922892528964
4.621,9.232920495405512
4.622,9.23491809828206
4.623,9.236915701158608
4.624,9.238913304035156
4.625,9.240910906911704
4.626,9.242908509788252
4.627,9.2449061126648
4.628,9.24690371554135
4.6290000000000004,9.248901318417898
4.63,9.250898921294446
4.631,9.252896524170994
4.632,9.254894127047542
4.633,9.25689172992409
4.634,9.25888933280064
4.635,9.260886935677188
4.636,9.262884538553736
