Time,I
0.0,9.990011985617258
0.001,9.992009588493806
0.002,9.994007191370354
0.003,9.996004794246902
0.004,9.99800239712345
0.005,9.999999999999998
0.006,10.001997602876546
0.007,10.003995205753096
0.008,10.005992808629644
0.009000000000000001,10.007990411506192
0.01,10.00998801438274
0.011,10.011985617259288
0.012,10.013983220135836
0.013000000000000001,10.015980823012384
0.014,10.017978425888932
0.015,10.01997602876548
0.016,10.021973631642028
0.017,10.023971234518577
0.018000000000000002,10.025968837395125
0.019,10.027966440271673
0.02,10.02996404314822
0.021,10.031961646024769
0.022,10.033959248901317
0.023,10.035956851777865
0.024,10.037954454654413
0.025,10.039952057530964
0.026000000000000002,10.04194966040751
0.027,10.04394726328406
0.028,10.045944866160609
0.029,10.047942469037157
0.03,10.049940071913705
0.031,10.051937674790253
0.032,10.0539352776668
0.033,10.055932880543349
0.034,10.057930483419897
0.035,10.059928086296445
0.036000000000000004,10.061925689172991
0.037,10.06392329204954
0.038,10.065920894926087
0.039,10.067918497802635
0.04,10.069916100679183
0.041,10.071913703555731
0.042,10.07391130643228
0.043000000000000003,10.07590890930883
0.044,10.077906512185375
0.045,10.079904115061924
0.046,10.081901717938472
0.047,10.08389932081502
0.048,10.08589692369157
0.049,10.087894526568116
0.05,10.089892129444666
0.051000000000000004,10.091889732321214
0.052000000000000005,10.093887335197762
0.053,10.09588493807431
0.054,10.097882540950858
0.055,10.099880143827406
0.056,10.101877746703954
0.057,10.103875349580502
0.058,10.10587295245705
0.059000000000000004,10.107870555333598
0.06,10.109868158210146
0.061,10.111865761086696
0.062,10.113863363963244
0.063,10.115860966839792
0.064,10.11785856971634
0.065,10.119856172592888
0.066,10.121853775469436
0.067,10.123851378345984
0.068,10.125848981222532
0.069,10.12784658409908
0.07,10.129844186975628
0.07100000000000001,10.131841789852176
0.07200000000000001,10.133839392728724
0.073,10.135836995605272
0.074,10.13783459848182
0.075,10.139832201358368
0.076,10.141829804234916
0.077,10.143827407111464
0.078,10.145825009988013
0.079,10.147822612864562
0.08,10.14982021574111
0.081,10.151817818617658
0.082,10.153815421494206
0.083,10.155813024370756
0.084,10.157810627247304
0.085,10.15980823012385
0.08600000000000001,10.1618058330004
0.08700000000000001,10.163803435876948
0.088,10.165801038753496
0.089,10.167798641630045
0.09,10.16979624450659
0.091,10.17179384738314
0.092,10.173791450259689
0.093,10.175789053136237
0.094,10.177786656012785
0.095,10.179784258889333
0.096,10.18178186176588
0.097,10.183779464642427
0.098,10.185777067518975
0.099,10.187774670395523
0.1,10.189772273272071
0.101,10.19176987614862
0.10200000000000001,10.193767479025167
0.10300000000000001,10.195765081901715
0.10400000000000001,10.197762684778263
0.105,10.199760287654811
0.106,10.20175789053136
0.107,10.20375549340791
0.108,10.205753096284456
0.109,10.207750699161004
0.11,10.209748302037552
0.111,10.211745904914102
0.112,10.21374350779065
0.113,10.215741110667198
0.114,10.217738713543746
0.115,10.219736316420295
0.116,10.221733919296843
0.117,10.223731522173392
0.11800000000000001,10.22572912504994
0.11900000000000001,10.227726727926488
0.12,10.229724330803036
0.121,10.231721933679584
0.122,10.233719536556132
0.123,10.23571713943268
0.124,10.237714742309228
0.125,10.239712345185776
0.126,10.241709948062324
0.127,10.243707550938872
0.128,10.24570515381542
0.129,10.247702756691968
0.13,10.249700359568516
0.131,10.251697962445064
0.132,10.253695565321612
0.133,10.255693168198162
0.134,10.25769077107471
0.135,10.259688373951258
0.136,10.261685976827806
0.137,10.263683579704354
0.138,10.265681182580902
0.139,10.26767878545745
0.14,10.269676388333998
0.14100000000000001,10.271673991210546
0.14200000000000002,10.273671594087094
0.14300000000000002,10.275669196963642
0.14400000000000002,10.27766679984019
0.145,10.27966440271674
0.146,10.281662005593288
0.147,10.283659608469836
0.148,10.285657211346384
0.149,10.28765481422293
0.15,10.28965241709948
0.151,10.291650019976029
0.152,10.293647622852577
0.153,10.295645225729125
0.154,10.297642828605673
0.155,10.29964043148222
0.156,10.301638034358769
0.157,10.303635637235317
0.158,10.305633240111865
0.159,10.307630842988411
0.16,10.30962844586496
0.161,10.311626048741507
0.162,10.313623651618055
0.163,10.315621254494603
0.164,10.317618857371151
0.165,10.3196164602477
0.166,10.32161406312425
0.167,10.323611666000795
0.168,10.325609268877344
0.169,10.327606871753895
0.17,10.329604474630443
0.171,10.331602077506991
0.17200000000000001,10.33359968038354
0.17300000000000001,10.335597283260087
0.17400000000000002,10.337594886136635
0.17500000000000002,10.339592489013183
0.176,10.341590091889731
0.177,10.34358769476628
0.178,10.345585297642828
0.179,10.347582900519376
0.18,10.349580503395924
0.181,10.351578106272472
0.182,10.35357570914902
0.183,10.355573312025568
0.184,10.357570914902116
0.185,10.359568517778664
0.186,10.361566120655212
0.187,10.363563723531762
0.188,10.36556132640831
0.189,10.367558929284858
0.19,10.369556532161406
0.191,10.371554135037954
0.192,10.373551737914502
0.193,10.37554934079105
0.194,10.377546943667598
0.195,10.379544546544146
0.196,10.381542149420694
0.197,10.383539752297242
0.198,10.38553735517379
0.199,10.387534958050338
0.2,10.389532560926886
0.201,10.391530163803434
0.202,10.393527766679982
0.203,10.39552536955653
0.20400000000000001,10.397522972433078
0.20500000000000002,10.399520575309628
0.20600000000000002,10.401518178186176
0.20700000000000002,10.403515781062724
0.20800000000000002,10.405513383939272
0.209,10.40751098681582
0.21,10.409508589692368
0.211,10.411506192568917
0.212,10.413503795445465
0.213,10.415501398322013
0.214,10.41749900119856
0.215,10.419496604075109
0.216,10.421494206951657
0.217,10.423491809828205
0.218,10.425489412704753
0.219,10.4274870155813
0.22,10.429484618457847
0.221,10.431482221334395
0.222,10.433479824210943
0.223,10.435477427087497
0.224,10.437475029964045
0.225,10.439472632840593
0.226,10.44147023571714
0.227,10.443467838593689
0.228,10.445465441470237
0.229,10.447463044346785
0.23,10.449460647223331
0.231,10.45145825009988
0.232,10.453455852976427
0.233,10.455453455852975
0.234,10.457451058729523
0.23500000000000001,10.459448661606071
0.23600000000000002,10.46144626448262
0.23700000000000002,10.463443867359167
0.23800000000000002,10.465441470235715
0.23900000000000002,10.467439073112264
0.24,10.469436675988812
0.241,10.47143427886536
0.242,10.47343188174191
0.243,10.475429484618456
0.244,10.477427087495006
0.245,10.479424690371554
0.246,10.481422293248102
0.247,10.48341989612465
0.248,10.485417499001198
0.249,10.487415101877746
0.25,10.489412704754294
0.251,10.491410307630842
0.252,10.49340791050739
0.253,10.495405513383938
0.254,10.497403116260486
0.255,10.499400719137034
0.256,10.501398322013582
0.257,10.50339592489013
0.258,10.505393527766678
0.259,10.507391130643228
0.26,10.509388733519776
0.261,10.511386336396324
0.262,10.513383939272872
0.263,10.51538154214942
0.264,10.517379145025968
0.265,10.519376747902516
0.266,10.521374350779064
0.267,10.523371953655612
0.268,10.52536955653216
0.269,10.527367159408708
0.27,10.529364762285256
0.271,10.531362365161804
0.272,10.533359968038353
0.273,10.5353575709149
0.274,10.537355173791449
0.275,10.539352776667997
0.276,10.541350379544545
0.277,10.543347982421094
0.278,10.545345585297644
0.279,10.54734318817419
0.28,10.54934079105074
0.281,10.551338393927288
0.28200000000000003,10.553335996803836
0.28300000000000003,10.555333599680385
0.28400000000000003,10.55733120255693
0.28500000000000003,10.55932880543348
0.28600000000000003,10.561326408310029
0.28700000000000003,10.563324011186577
0.28800000000000003,10.565321614063125
0.289,10.567319216939673
0.29,10.56931681981622
0.291,10.571314422692769
0.292,10.573312025569315
0.293,10.575309628445863
0.294,10.577307231322411
0.295,10.57930483419896
0.296,10.581302437075507
0.297,10.583300039952055
0.298,10.585297642828603
0.299,10.587295245705151
0.3,10.5892928485817
0.301,10.59129045145825
0.302,10.593288054334796
0.303,10.595285657211344
0.304,10.597283260087892
0.305,10.59928086296444
0.306,10.60127846584099
0.307,10.603276068717538
0.308,10.605273671594086
0.309,10.607271274470634
0.31,10.609268877347182
0.311,10.61126648022373
0.312,10.613264083100278
0.313,10.615261685976828
0.314,10.617259288853376
0.315,10.619256891729924
0.316,10.621254494606472
0.317,10.62325209748302
0.318,10.625249700359568
0.319,10.627247303236116
0.32,10.629244906112664
0.321,10.631242508989212
0.322,10.63324011186576
0.323,10.635237714742308
0.324,10.637235317618856
0.325,10.639232920495404
0.326,10.641230523371952
0.327,10.6432281262485
0.328,10.645225729125048
0.329,10.647223332001596
0.33,10.649220934878144
0.331,10.651218537754692
0.332,10.653216140631242
0.333,10.65521374350779
0.334,10.657211346384338
0.335,10.659208949260886
0.336,10.661206552137434
0.337,10.663204155013982
0.338,10.66520175789053
0.339,10.66719936076708
0.34,10.669196963643628
0.341,10.671194566520176
0.342,10.673192169396724
0.343,10.67518977227327
0.34400000000000003,10.67718737514982
0.34500000000000003,10.679184978026369
0.34600000000000003,10.681182580902917
0.34700000000000003,10.683180183779465
0.34800000000000003,10.685177786656013
0.34900000000000003,10.68717538953256
0.35000000000000003,10.689172992409109
0.35100000000000003,10.691170595285657
0.352,10.693168198162205
0.353,10.695165801038751
0.354,10.6971634039153
0.355,10.699161006791847
0.356,10.701158609668395
0.357,10.703156212544943
0.358,10.705153815421491
0.359,10.70715141829804
0.36,10.70914902117459
0.361,10.711146624051135
0.362,10.713144226927684
0.363,10.715141829804232
0.364,10.71713943268078
0.365,10.71913703555733
0.366,10.721134638433876
0.367,10.723132241310426
0.368,10.725129844186975
0.369,10.727127447063523
0.37,10.729125049940071
0.371,10.73112265281662
0.372,10.733120255693168
0.373,10.735117858569716
0.374,10.737115461446264
0.375,10.739113064322812
0.376,10.74111066719936
0.377,10.743108270075908
0.378,10.745105872952456
0.379,10.747103475829004
0.38,10.749101078705552
0.381,10.7510986815821
0.382,10.753096284458648
0.383,10.755093887335196
0.384,10.757091490211744
0.385,10.759089093088292
0.386,10.761086695964842
0.387,10.76308429884139
0.388,10.765081901717938
0.389,10.767079504594486
0.39,10.769077107471034
0.391,10.771074710347582
0.392,10.77307231322413
0.393,10.775069916100678
0.394,10.777067518977226
0.395,10.779065121853774
0.396,10.781062724730322
0.397,10.78306032760687
0.398,10.785057930483418
0.399,10.787055533359966
0.4,10.789053136236516
0.401,10.791050739113064
0.402,10.79304834198961
0.403,10.79504594486616
0.404,10.797043547742708
0.405,10.799041150619257
0.406,10.801038753495805
0.40700000000000003,10.803036356372353
0.40800000000000003,10.8050339592489
0.40900000000000003,10.807031562125449
0.41000000000000003,10.809029165001997
0.41100000000000003,10.811026767878545
0.41200000000000003,10.813024370755093
0.41300000000000003,10.81502197363164
0.41400000000000003,10.817019576508187
0.41500000000000004,10.819017179384735
0.41600000000000004,10.821014782261283
0.417,10.823012385137831
0.418,10.82500998801438
0.419,10.82700759089093
0.42,10.829005193767475
0.421,10.831002796644023
0.422,10.833000399520577
0.423,10.834998002397125
0.424,10.836995605273671
0.425,10.83899320815022
0.426,10.840990811026767
0.427,10.842988413903315
0.428,10.844986016779863
0.429,10.846983619656411
0.43,10.84898122253296
0.431,10.850978825409507
0.432,10.852976428286055
0.433,10.854974031162604
0.434,10.856971634039152
0.435,10.8589692369157
0.436,10.860966839792248
0.437,10.862964442668796
0.438,10.864962045545344
0.439,10.866959648421892
0.44,10.868957251298442
0.441,10.87095485417499
0.442,10.872952457051538
0.443,10.874950059928086
0.444,10.876947662804634
0.445,10.878945265681182
0.446,10.88094286855773
0.447,10.882940471434278
0.448,10.884938074310826
0.449,10.886935677187374
0.45,10.888933280063922
0.451,10.89093088294047
0.452,10.892928485817018
0.453,10.894926088693566
0.454,10.896923691570114
0.455,10.898921294446662
0.456,10.90091889732321
0.457,10.902916500199758
0.458,10.904914103076308
0.459,10.906911705952856
0.46,10.908909308829404
0.461,10.910906911705952
0.462,10.9129045145825
0.463,10.914902117459048
0.464,10.916899720335596
0.465,10.918897323212144
0.466,10.920894926088693
0.467,10.92289252896524
0.468,10.924890131841789
0.46900000000000003,10.926887734718337
0.47000000000000003,10.928885337594885
0.47100000000000003,10.930882940471433
0.47200000000000003,10.93288054334798
0.47300000000000003,10.934878146224529
0.47400000000000003,10.936875749101077
0.47500000000000003,10.938873351977623
0.47600000000000003,10.940870954854176
0.47700000000000004,10.942868557730725
0.47800000000000004,10.94486616060727
0.47900000000000004,10.94686376348382
0.48,10.948861366360369
0.481,10.950858969236917
0.482,10.952856572113465
0.483,10.954854174990013
0.484,10.95685177786656
0.485,10.958849380743109
0.486,10.960846983619655
0.487,10.962844586496203
0.488,10.964842189372751
0.489,10.9668397922493
0.49,10.968837395125847
0.491,10.970834998002395
0.492,10.972832600878943
0.493,10.974830203755491
0.494,10.97682780663204
0.495,10.97882540950859
0.496,10.980823012385136
0.497,10.982820615261684
0.498,10.984818218138232
0.499,10.98681582101478
0.5,10.98881342389133
0.501,10.990811026767878
0.502,10.992808629644426
0.503,10.994806232520974
0.504,10.996803835397522
0.505,10.99880143827407
0.506,11.000799041150618
0.507,11.002796644027166
0.508,11.004794246903714
0.509,11.006791849780262
0.51,11.00878945265681
0.511,11.010787055533358
0.512,11.012784658409908
0.513,11.014782261286456
0.514,11.016779864163004
0.515,11.018777467039552
0.516,11.0207750699161
0.517,11.022772672792648
0.518,11.024770275669196
0.519,11.026767878545744
0.52,11.028765481422292
0.521,11.03076308429884
0.522,11.032760687175388
0.523,11.034758290051936
0.524,11.036755892928484
0.525,11.038753495805032
0.526,11.04075109868158
0.527,11.042748701558128
0.528,11.044746304434677
0.529,11.046743907311225
0.53,11.048741510187774
0.531,11.050739113064322
0.532,11.05273671594087
0.533,11.05473431881742
0.534,11.056731921693968
0.535,11.058729524570516
0.536,11.060727127447064
0.537,11.06272473032361
0.538,11.06472233320016
0.539,11.066719936076709
0.54,11.068717538953257
0.541,11.070715141829805
0.542,11.072712744706353
0.543,11.0747103475829
0.544,11.076707950459449
0.545,11.078705553335997
0.546,11.080703156212545
0.547,11.082700759089091
0.548,11.08469836196564
0.549,11.086695964842187
0.55,11.088693567718735
0.551,11.090691170595283
0.552,11.092688773471831
0.553,11.09468637634838
0.554,11.09668397922493
0.555,11.098681582101475
0.556,11.100679184978024
0.557,11.102676787854572
0.558,11.10467439073112
0.559,11.10667199360767
0.56,11.108669596484216
0.561,11.110667199360766
0.562,11.112664802237314
0.5630000000000001,11.114662405113862
0.5640000000000001,11.11666000799041
0.5650000000000001,11.118657610866958
0.5660000000000001,11.120655213743508
0.5670000000000001,11.122652816620056
0.5680000000000001,11.124650419496604
0.5690000000000001,11.126648022373152
0.5700000000000001,11.1286456252497
0.5710000000000001,11.130643228126248
0.5720000000000001,11.132640831002796
0.5730000000000001,11.134638433879344
0.5740000000000001,11.136636036755892
0.5750000000000001,11.13863363963244
0.5760000000000001,11.140631242508988
0.577,11.142628845385536
0.578,11.144626448262084
0.579,11.146624051138632
0.58,11.14862165401518
0.581,11.150619256891728
0.582,11.152616859768276
0.583,11.154614462644824
0.584,11.156612065521374
0.585,11.158609668397922
0.586,11.16060727127447
0.587,11.162604874151018
0.588,11.164602477027566
0.589,11.166600079904114
0.59,11.168597682780662
0.591,11.17059528565721
0.592,11.172592888533758
0.593,11.174590491410306
0.594,11.176588094286856
0.595,11.178585697163404
0.596,11.18058330003995
0.597,11.1825809029165
0.598,11.184578505793048
0.599,11.186576108669597
0.6,11.188573711546145
0.601,11.19057131442269
0.602,11.19256891729924
0.603,11.194566520175789
0.604,11.196564123052337
0.605,11.198561725928885
0.606,11.200559328805433
0.607,11.20255693168198
0.608,11.204554534558527
0.609,11.206552137435075
0.61,11.208549740311623
0.611,11.210547343188171
0.612,11.21254494606472
0.613,11.21454254894127
0.614,11.216540151817815
0.615,11.218537754694363
0.616,11.220535357570911
0.617,11.22253296044746
0.618,11.22453056332401
0.619,11.226528166200556
0.62,11.228525769077107
0.621,11.230523371953655
0.622,11.232520974830203
0.623,11.234518577706751
0.624,11.2365161805833
0.625,11.238513783459847
0.626,11.240511386336395
0.627,11.242508989212944
0.628,11.244506592089492
0.629,11.24650419496604
0.63,11.248501797842588
0.631,11.250499400719136
0.632,11.252497003595684
0.633,11.254494606472232
0.634,11.25649220934878
0.635,11.258489812225328
0.636,11.260487415101876
0.637,11.262485017978424
0.638,11.264482620854974
0.639,11.266480223731522
0.64,11.26847782660807
0.641,11.270475429484618
0.642,11.272473032361166
0.643,11.274470635237714
0.644,11.276468238114262
0.645,11.27846584099081
0.646,11.280463443867358
0.647,11.282461046743906
0.648,11.284458649620454
0.649,11.286456252497002
0.65,11.28845385537355
0.651,11.290451458250098
0.652,11.292449061126646
0.653,11.294446664003194
0.654,11.296444266879742
0.655,11.29844186975629
0.656,11.30043947263284
0.657,11.302437075509388
0.658,11.304434678385936
0.659,11.306432281262484
0.66,11.308429884139032
0.661,11.31042748701558
0.662,11.312425089892129
0.663,11.314422692768677
0.664,11.316420295645225
0.665,11.318417898521773
0.666,11.32041550139832
0.667,11.322413104274869
0.668,11.324410707151417
0.669,11.326408310027965
0.67,11.328405912904511
0.671,11.33040351578106
0.672,11.332401118657607
0.673,11.334398721534155
0.674,11.336396324410709
0.675,11.338393927287257
0.676,11.340391530163805
0.677,11.342389133040353
0.678,11.3443867359169
0.679,11.346384338793449
0.68,11.348381941669995
0.681,11.350379544546543
0.682,11.352377147423091
0.683,11.35437475029964
0.684,11.356372353176187
0.685,11.358369956052735
0.686,11.360367558929283
0.687,11.362365161805831
0.6880000000000001,11.36436276468238
0.6890000000000001,11.366360367558928
0.6900000000000001,11.368357970435476
0.6910000000000001,11.370355573312024
0.6920000000000001,11.372353176188572
0.6930000000000001,11.37435077906512
0.6940000000000001,11.37634838194167
0.6950000000000001,11.378345984818218
0.6960000000000001,11.380343587694766
0.6970000000000001,11.382341190571314
0.6980000000000001,11.384338793447862
0.6990000000000001,11.38633639632441
0.7000000000000001,11.388333999200958
0.7010000000000001,11.390331602077506
0.7020000000000001,11.392329204954054
0.7030000000000001,11.394326807830602
0.704,11.39632441070715
0.705,11.398322013583698
0.706,11.400319616460246
0.707,11.402317219336794
0.708,11.404314822213342
0.709,11.40631242508989
0.71,11.40831002796644
0.711,11.410307630842988
0.712,11.412305233719536
0.713,11.414302836596084
0.714,11.416300439472632
0.715,11.41829804234918
0.716,11.420295645225728
0.717,11.422293248102276
0.718,11.424290850978824
0.719,11.426288453855372
0.72,11.42828605673192
0.721,11.430283659608468
0.722,11.432281262485017
0.723,11.434278865361565
0.724,11.436276468238113
0.725,11.43827407111466
0.726,11.440271673991209
0.727,11.442269276867757
0.728,11.444266879744308
0.729,11.446264482620856
0.73,11.448262085497404
0.731,11.45025968837395
0.732,11.4522572912505
0.733,11.454254894127049
0.734,11.456252497003597
0.735,11.458250099880145
0.736,11.460247702756693
0.737,11.46224530563324
0.738,11.464242908509789
0.739,11.466240511386337
0.74,11.468238114262885
0.741,11.470235717139431
0.742,11.47223332001598
0.743,11.474230922892527
0.744,11.476228525769075
0.745,11.478226128645623
0.746,11.480223731522171
0.747,11.48222133439872
0.748,11.48421893727527
0.749,11.486216540151815
0.75,11.488214143028364
0.751,11.490211745904912
0.752,11.49220934878146
0.753,11.49420695165801
0.754,11.496204554534556
0.755,11.498202157411106
0.756,11.500199760287654
0.757,11.502197363164202
0.758,11.50419496604075
0.759,11.506192568917298
0.76,11.508190171793846
0.761,11.510187774670394
0.762,11.512185377546942
0.763,11.51418298042349
0.764,11.516180583300038
0.765,11.518178186176588
0.766,11.520175789053136
0.767,11.522173391929684
0.768,11.524170994806232
0.769,11.52616859768278
0.77,11.528166200559328
0.771,11.530163803435876
0.772,11.532161406312424
0.773,11.534159009188972
0.774,11.53615661206552
0.775,11.538154214942068
0.776,11.540151817818616
0.777,11.542149420695164
0.778,11.544147023571712
0.779,11.54614462644826
0.78,11.548142229324808
0.781,11.550139832201356
0.782,11.552137435077904
0.783,11.554135037954454
0.784,11.556132640831002
0.785,11.55813024370755
0.786,11.560127846584098
0.787,11.562125449460646
0.788,11.564123052337196
0.789,11.566120655213744
0.79,11.56811825809029
0.791,11.57011586096684
0.792,11.572113463843388
0.793,11.574111066719937
0.794,11.576108669596485
0.795,11.57810627247303
0.796,11.58010387534958
0.797,11.582101478226129
0.798,11.584099081102677
0.799,11.586096683979225
0.8,11.588094286855773
0.801,11.59009188973232
0.802,11.592089492608867
0.803,11.594087095485415
0.804,11.596084698361963
0.805,11.598082301238511
0.806,11.60007990411506
0.807,11.60207750699161
0.808,11.604075109868155
0.809,11.606072712744703
0.81,11.608070315621251
0.811,11.6100679184978
0.812,11.61206552137435
0.8130000000000001,11.614063124250896
0.8140000000000001,11.616060727127444
0.8150000000000001,11.618058330003992
0.8160000000000001,11.620055932880542
0.8170000000000001,11.62205353575709
0.8180000000000001,11.624051138633638
0.8190000000000001,11.626048741510187
0.8200000000000001,11.628046344386735
0.8210000000000001,11.630043947263283
0.8220000000000001,11.632041550139832
0.8230000000000001,11.63403915301638
0.8240000000000001,11.636036755892928
0.8250000000000001,11.638034358769476
0.8260000000000001,11.640031961646024
0.8270000000000001,11.642029564522572
0.8280000000000001,11.64402716739912
0.8290000000000001,11.646024770275668
0.8300000000000001,11.648022373152216
0.8310000000000001,11.650019976028764
0.8320000000000001,11.652017578905312
0.833,11.65401518178186
0.834,11.656012784658408
0.835,11.658010387534956
0.836,11.660007990411504
0.837,11.662005593288054
0.838,11.664003196164602
0.839,11.66600079904115
0.84,11.667998401917698
0.841,11.669996004794246
0.842,11.671993607670794
0.843,11.673991210547342
0.844,11.67598881342389
0.845,11.677986416300438
0.846,11.679984019176986
0.847,11.681981622053534
0.848,11.683979224930082
0.849,11.68597682780663
0.85,11.68797443068318
0.851,11.689972033559728
0.852,11.691969636436276
0.853,11.693967239312824
0.854,11.69596484218937
0.855,11.69796244506592
0.856,11.699960047942469
0.857,11.701957650819017
0.858,11.703955253695565
0.859,11.705952856572113
0.86,11.70795045944866
0.861,11.709948062325209
0.862,11.711945665201757
0.863,11.713943268078305
0.864,11.715940870954851
0.865,11.7179384738314
0.866,11.719936076707947
0.867,11.721933679584495
0.868,11.723931282461043
0.869,11.725928885337591
0.87,11.72792648821414
0.871,11.72992409109069
0.872,11.731921693967235
0.873,11.733919296843789
0.874,11.735916899720335
0.875,11.737914502596883
0.876,11.739912105473431
0.877,11.74190970834998
0.878,11.743907311226527
0.879,11.745904914103075
0.88,11.747902516979623
0.881,11.749900119856171
0.882,11.75189772273272
0.883,11.753895325609268
0.884,11.755892928485816
0.885,11.757890531362364
0.886,11.759888134238912
0.887,11.76188573711546
0.888,11.763883339992008
0.889,11.765880942868556
0.89,11.767878545745104
0.891,11.769876148621654
0.892,11.771873751498202
0.893,11.77387135437475
0.894,11.775868957251298
0.895,11.777866560127846
0.896,11.779864163004394
0.897,11.781861765880942
0.898,11.78385936875749
0.899,11.785856971634038
0.9,11.787854574510586
0.901,11.789852177387134
0.902,11.791849780263682
0.903,11.79384738314023
0.904,11.795844986016778
0.905,11.797842588893326
0.906,11.799840191769874
0.907,11.801837794646422
0.908,11.80383539752297
0.909,11.80583300039952
0.91,11.807830603276068
0.911,11.809828206152616
0.912,11.811825809029164
0.913,11.813823411905712
0.914,11.81582101478226
0.915,11.817818617658808
0.916,11.819816220535357
0.917,11.821813823411905
0.918,11.823811426288453
0.919,11.825809029165
0.92,11.827806632041549
0.921,11.829804234918097
0.922,11.831801837794645
0.923,11.833799440671193
0.924,11.83579704354774
0.925,11.837794646424287
0.926,11.839792249300835
0.927,11.841789852177389
0.928,11.843787455053937
0.929,11.845785057930485
0.93,11.847782660807033
0.931,11.84978026368358
0.932,11.851777866560129
0.933,11.853775469436677
0.934,11.855773072313225
0.935,11.857770675189771
0.936,11.85976827806632
0.937,11.861765880942867
0.9380000000000001,11.863763483819415
0.9390000000000001,11.865761086695963
0.9400000000000001,11.867758689572511
0.9410000000000001,11.86975629244906
0.9420000000000001,11.871753895325607
0.9430000000000001,11.873751498202155
0.9440000000000001,11.875749101078704
0.9450000000000001,11.877746703955252
0.9460000000000001,11.8797443068318
0.9470000000000001,11.88174190970835
0.9480000000000001,11.883739512584896
0.9490000000000001,11.885737115461446
0.9500000000000001,11.887734718337994
0.9510000000000001,11.889732321214542
0.9520000000000001,11.89172992409109
0.9530000000000001,11.893727526967638
0.9540000000000001,11.895725129844186
0.9550000000000001,11.897722732720734
0.9560000000000001,11.899720335597282
0.9570000000000001,11.90171793847383
0.9580000000000001,11.903715541350378
0.9590000000000001,11.905713144226926
0.96,11.907710747103474
0.961,11.909708349980022
0.962,11.91170595285657
0.963,11.91370355573312
0.964,11.915701158609668
0.965,11.917698761486216
0.966,11.919696364362764
0.967,11.921693967239312
0.968,11.92369157011586
0.969,11.925689172992408
0.97,11.927686775868956
0.971,11.929684378745504
0.972,11.931681981622052
0.973,11.9336795844986
0.974,11.935677187375148
0.975,11.937674790251696
0.976,11.939672393128244
0.977,11.941669996004793
0.978,11.94366759888134
0.979,11.945665201757889
0.98,11.947662804634437
0.981,11.949660407510986
0.982,11.951658010387536
0.983,11.953655613264084
0.984,11.95565321614063
0.985,11.95765081901718
0.986,11.959648421893728
0.987,11.961646024770276
0.988,11.963643627646825
0.989,11.96564123052337
0.99,11.96763883339992
0.991,11.969636436276469
0.992,11.971634039153017
0.993,11.973631642029565
0.994,11.975629244906113
0.995,11.97762684778266
0.996,11.979624450659207
0.997,11.981622053535755
0.998,11.983619656412303
0.999,11.985617259288851
1.0,11.9876148621654
1.0010000000000001,11.989612465041947
1.002,11.991610067918495
1.0030000000000001,11.993607670795043
1.004,11.995605273671591
1.0050000000000001,11.99760287654814
1.006,11.99960047942469
1.0070000000000001,12.001598082301236
1.008,12.003595685177784
1.0090000000000001,12.005593288054332
1.01,12.00759089093088
1.0110000000000001,12.00958849380743
1.012,12.011586096683978
1.0130000000000001,12.013583699560526
1.014,12.015581302437074
1.0150000000000001,12.017578905313622
1.016,12.01957650819017
1.0170000000000001,12.02157411106672
1.018,12.023571713943268
1.0190000000000001,12.025569316819816
1.02,12.027566919696364
1.0210000000000001,12.029564522572912
1.022,12.03156212544946
1.0230000000000001,12.033559728326008
1.024,12.035557331202556
1.025,12.037554934079104
1.026,12.039552536955652
1.027,12.0415501398322
1.028,12.043547742708748
1.029,12.045545345585296
1.03,12.047542948461844
1.031,12.049540551338392
1.032,12.05153815421494
1.033,12.053535757091488
1.034,12.055533359968036
1.035,12.057530962844586
1.036,12.059528565721134
1.037,12.061526168597682
1.038,12.06352377147423
1.039,12.065521374350778
1.04,12.067518977227326
1.041,12.069516580103874
1.042,12.071514182980422
1.043,12.07351178585697
1.044,12.07550938873352
1.045,12.077506991610068
1.046,12.079504594486616
1.047,12.081502197363164
1.048,12.08349980023971
1.049,12.08549740311626
1.05,12.087495005992809
1.051,12.089492608869357
1.052,12.091490211745905
1.053,12.093487814622453
1.054,12.095485417499
1.055,12.097483020375549
1.056,12.099480623252097
1.057,12.101478226128645
1.058,12.103475829005191
1.059,12.10547343188174
1.06,12.107471034758287
1.061,12.109468637634835
1.062,12.111466240511383
1.063,12.113463843387931
1.064,12.11546144626448
1.065,12.11745904914103
1.066,12.119456652017575
1.067,12.121454254894124
1.068,12.123451857770672
1.069,12.12544946064722
1.07,12.12744706352377
1.071,12.12944466640032
1.072,12.131442269276867
1.073,12.133439872153415
1.074,12.135437475029963
1.075,12.137435077906511
1.076,12.13943268078306
1.077,12.141430283659608
1.078,12.143427886536156
1.079,12.145425489412704
1.08,12.147423092289252
1.081,12.1494206951658
1.082,12.151418298042348
1.083,12.153415900918896
1.084,12.155413503795444
1.085,12.157411106671992
1.086,12.15940870954854
1.087,12.161406312425088
1.088,12.163403915301636
1.089,12.165401518178186
1.09,12.167399121054734
1.091,12.169396723931282
1.092,12.17139432680783
1.093,12.173391929684378
1.094,12.175389532560926
1.095,12.177387135437474
1.096,12.179384738314022
1.097,12.18138234119057
1.098,12.183379944067118
1.099,12.185377546943666
1.1,12.187375149820214
1.101,12.189372752696762
1.102,12.19137035557331
1.103,12.193367958449858
1.104,12.195365561326406
1.105,12.197363164202956
1.106,12.199360767079504
1.107,12.201358369956052
1.108,12.2033559728326
1.109,12.205353575709148
1.11,12.207351178585697
1.111,12.209348781462245
1.112,12.211346384338793
1.113,12.21334398721534
1.114,12.215341590091889
1.115,12.217339192968437
1.116,12.219336795844985
1.117,12.221334398721533
1.118,12.22333200159808
1.119,12.225329604474627
1.12,12.227327207351175
1.121,12.229324810227723
1.122,12.231322413104271
1.123,12.23332001598082
1.124,12.23531761885737
1.125,12.23731522173392
1.1260000000000001,12.239312824610469
1.127,12.241310427487017
1.1280000000000001,12.243308030363565
1.129,12.245305633240111
1.1300000000000001,12.24730323611666
1.131,12.249300838993207
1.1320000000000001,12.251298441869755
1.133,12.253296044746303
1.1340000000000001,12.255293647622851
1.135,12.2572912504994
1.1360000000000001,12.259288853375947
1.137,12.261286456252495
1.1380000000000001,12.263284059129044
1.139,12.265281662005592
1.1400000000000001,12.26727926488214
1.141,12.269276867758688
1.1420000000000001,12.271274470635236
1.143,12.273272073511784
1.1440000000000001,12.275269676388334
1.145,12.277267279264882
1.1460000000000001,12.27926488214143
1.147,12.281262485017978
1.1480000000000001,12.283260087894526
1.149,12.285257690771074
1.1500000000000001,12.287255293647622
1.151,12.28925289652417
1.1520000000000001,12.291250499400718
1.153,12.293248102277266
1.154,12.295245705153814
1.155,12.297243308030362
1.156,12.29924091090691
1.157,12.301238513783458
1.158,12.303236116660006
1.159,12.305233719536554
1.16,12.307231322413102
1.161,12.30922892528965
1.162,12.3112265281662
1.163,12.313224131042748
1.164,12.315221733919296
1.165,12.317219336795844
1.166,12.319216939672392
1.167,12.32121454254894
1.168,12.323212145425488
1.169,12.325209748302036
1.17,12.327207351178584
1.171,12.329204954055133
1.172,12.33120255693168
1.173,12.333200159808229
1.174,12.335197762684777
1.175,12.337195365561325
1.176,12.339192968437873
1.177,12.34119057131442
1.178,12.343188174190969
1.179,12.345185777067517
1.18,12.347183379944068
1.181,12.349180982820616
1.182,12.351178585697165
1.183,12.35317618857371
1.184,12.35517379145026
1.185,12.357171394326809
1.186,12.359168997203357
1.187,12.361166600079905
1.188,12.363164202956453
1.189,12.365161805833
1.19,12.367159408709549
1.191,12.369157011586095
1.192,12.371154614462643
1.193,12.373152217339191
1.194,12.37514982021574
1.195,12.377147423092287
1.196,12.379145025968835
1.197,12.381142628845383
1.198,12.383140231721931
1.199,12.38513783459848
1.2,12.38713543747503
1.201,12.389133040351576
1.202,12.391130643228124
1.203,12.393128246104672
1.204,12.39512584898122
1.205,12.39712345185777
1.206,12.399121054734318
1.207,12.401118657610866
1.208,12.403116260487414
1.209,12.405113863363962
1.21,12.40711146624051
1.211,12.409109069117058
1.212,12.411106671993606
1.213,12.413104274870154
1.214,12.415101877746702
1.215,12.41709948062325
1.216,12.4190970834998
1.217,12.421094686376348
1.218,12.423092289252896
1.219,12.425089892129444
1.22,12.427087495005992
1.221,12.42908509788254
1.222,12.431082700759088
1.223,12.433080303635636
1.224,12.435077906512184
1.225,12.437075509388732
1.226,12.43907311226528
1.227,12.441070715141828
1.228,12.443068318018376
1.229,12.445065920894924
1.23,12.447063523771472
1.231,12.44906112664802
1.232,12.451058729524568
1.233,12.453056332401117
1.234,12.455053935277666
1.235,12.457051538154214
1.236,12.459049141030762
1.237,12.46104674390731
1.238,12.46304434678386
1.239,12.465041949660408
1.24,12.467039552536956
1.241,12.469037155413504
1.242,12.47103475829005
1.243,12.4730323611666
1.244,12.475029964043149
1.245,12.477027566919697
1.246,12.479025169796245
1.247,12.481022772672793
1.248,12.48302037554934
1.249,12.485017978425889
1.25,12.487015581302437
1.2510000000000001,12.489013184178985
1.252,12.491010787055531
1.2530000000000001,12.49300838993208
1.254,12.495005992808627
1.2550000000000001,12.497003595685175
1.256,12.499001198561723
1.2570000000000001,12.500998801438271
1.258,12.50299640431482
1.2590000000000001,12.50499400719137
1.26,12.506991610067915
1.2610000000000001,12.508989212944464
1.262,12.510986815821012
1.2630000000000001,12.51298441869756
1.264,12.51498202157411
1.2650000000000001,12.516979624450656
1.266,12.518977227327206
1.2670000000000001,12.520974830203754
1.268,12.522972433080302
1.2690000000000001,12.52497003595685
1.27,12.5269676388334
1.2710000000000001,12.528965241709948
1.272,12.530962844586496
1.2730000000000001,12.532960447463044
1.274,12.534958050339592
1.2750000000000001,12.53695565321614
1.276,12.538953256092688
1.2770000000000001,12.540950858969236
1.278,12.542948461845784
1.2790000000000001,12.544946064722332
1.28,12.54694366759888
1.281,12.548941270475428
1.282,12.550938873351976
1.283,12.552936476228524
1.284,12.554934079105072
1.285,12.55693168198162
1.286,12.558929284858168
1.287,12.560926887734716
1.288,12.562924490611266
1.289,12.564922093487814
1.29,12.566919696364362
1.291,12.56891729924091
1.292,12.570914902117458
1.293,12.572912504994006
1.294,12.574910107870554
1.295,12.576907710747102
1.296,12.57890531362365
1.297,12.580902916500198
1.298,12.582900519376746
1.299,12.584898122253296
1.3,12.586895725129844
1.301,12.58889332800639
1.302,12.59089093088294
1.303,12.592888533759488
1.304,12.594886136636037
1.305,12.596883739512585
1.306,12.598881342389133
1.307,12.60087894526568
1.308,12.602876548142229
1.309,12.604874151018777
1.31,12.606871753895325
1.311,12.608869356771873
1.312,12.61086695964842
1.313,12.612864562524967
1.314,12.614862165401515
1.315,12.616859768278063
1.316,12.618857371154611
1.317,12.62085497403116
1.318,12.62285257690771
1.319,12.624850179784255
1.32,12.626847782660803
1.321,12.628845385537351
1.322,12.6308429884139
1.323,12.63284059129045
1.324,12.634838194167
1.325,12.636835797043547
1.326,12.638833399920095
1.327,12.640831002796643
1.328,12.642828605673191
1.329,12.64482620854974
1.33,12.646823811426287
1.331,12.648821414302835
1.332,12.650819017179384
1.333,12.652816620055932
1.334,12.65481422293248
1.335,12.656811825809028
1.336,12.658809428685576
1.337,12.660807031562124
1.338,12.662804634438672
1.339,12.66480223731522
1.34,12.666799840191768
1.341,12.668797443068316
1.342,12.670795045944866
1.343,12.672792648821414
1.344,12.674790251697962
1.345,12.67678785457451
1.346,12.678785457451058
1.347,12.680783060327606
1.348,12.682780663204154
1.349,12.684778266080702
1.35,12.68677586895725
1.351,12.688773471833798
1.352,12.690771074710346
1.353,12.692768677586894
1.354,12.694766280463442
1.355,12.69676388333999
1.356,12.698761486216538
1.357,12.700759089093086
1.358,12.702756691969634
1.359,12.704754294846182
1.36,12.706751897722732
1.361,12.70874950059928
1.362,12.710747103475828
1.363,12.712744706352376
1.364,12.714742309228924
1.365,12.716739912105472
1.366,12.71873751498202
1.367,12.720735117858569
1.368,12.722732720735117
1.369,12.724730323611665
1.37,12.726727926488213
1.371,12.72872552936476
1.372,12.730723132241309
1.373,12.732720735117857
1.374,12.734718337994403
1.375,12.736715940870951
1.3760000000000001,12.7387135437475
1.377,12.740711146624047
1.3780000000000001,12.7427087495006
1.379,12.744706352377149
1.3800000000000001,12.746703955253697
1.381,12.748701558130245
1.3820000000000001,12.750699161006793
1.383,12.75269676388334
1.3840000000000001,12.754694366759889
1.385,12.756691969636435
1.3860000000000001,12.758689572512983
1.387,12.760687175389531
1.3880000000000001,12.76268477826608
1.389,12.764682381142627
1.3900000000000001,12.766679984019175
1.391,12.768677586895723
1.3920000000000001,12.770675189772271
1.393,12.77267279264882
1.3940000000000001,12.774670395525368
1.395,12.776667998401916
1.3960000000000001,12.778665601278464
1.397,12.780663204155012
1.3980000000000001,12.78266080703156
1.399,12.78465840990811
1.4000000000000001,12.786656012784658
1.401,12.788653615661206
1.4020000000000001,12.790651218537754
1.403,12.792648821414302
1.4040000000000001,12.79464642429085
1.405,12.796644027167398
1.4060000000000001,12.798641630043946
1.407,12.800639232920494
1.408,12.802636835797042
1.409,12.80463443867359
1.41,12.806632041550138
1.411,12.808629644426686
1.412,12.810627247303234
1.413,12.812624850179782
1.414,12.814622453056332
1.415,12.81662005593288
1.416,12.818617658809428
1.417,12.820615261685976
1.418,12.822612864562524
1.419,12.824610467439072
1.42,12.82660807031562
1.421,12.828605673192168
1.422,12.830603276068716
1.423,12.832600878945264
1.424,12.834598481821812
1.425,12.83659608469836
1.426,12.838593687574908
1.427,12.840591290451457
1.428,12.842588893328005
1.429,12.844586496204553
1.43,12.8465840990811
1.431,12.848581701957649
1.432,12.8505793048342
1.433,12.852576907710748
1.434,12.854574510587296
1.435,12.856572113463844
1.436,12.85856971634039
1.437,12.86056731921694
1.438,12.862564922093489
1.439,12.864562524970037
1.44,12.866560127846585
1.441,12.868557730723133
1.442,12.87055533359968
1.443,12.872552936476229
1.444,12.874550539352777
1.445,12.876548142229325
1.446,12.878545745105871
1.447,12.88054334798242
1.448,12.882540950858967
1.449,12.884538553735515
1.45,12.886536156612063
1.451,12.888533759488611
1.452,12.89053136236516
1.453,12.89252896524171
1.454,12.894526568118255
1.455,12.896524170994804
1.456,12.898521773871352
1.457,12.9005193767479
1.458,12.90251697962445
1.459,12.904514582500996
1.46,12.906512185377546
1.461,12.908509788254094
1.462,12.910507391130642
1.463,12.91250499400719
1.464,12.914502596883738
1.465,12.916500199760286
1.466,12.918497802636834
1.467,12.920495405513382
1.468,12.922493008389932
1.469,12.92449061126648
1.47,12.926488214143028
1.471,12.928485817019576
1.472,12.930483419896124
1.473,12.932481022772672
1.474,12.93447862564922
1.475,12.936476228525768
1.476,12.938473831402316
1.477,12.940471434278864
1.478,12.942469037155412
1.479,12.94446664003196
1.48,12.946464242908508
1.481,12.948461845785056
1.482,12.950459448661604
1.483,12.952457051538152
1.484,12.9544546544147
1.485,12.956452257291248
1.486,12.958449860167798
1.487,12.960447463044346
1.488,12.962445065920894
1.489,12.964442668797442
1.49,12.96644027167399
1.491,12.968437874550538
1.492,12.970435477427086
1.493,12.972433080303636
1.494,12.974430683180184
1.495,12.97642828605673
1.496,12.97842588893328
1.497,12.980423491809828
1.498,12.982421094686377
1.499,12.984418697562925
1.5,12.98641630043947
1.5010000000000001,12.98841390331602
1.502,12.990411506192569
1.5030000000000001,12.992409109069117
1.504,12.994406711945665
1.5050000000000001,12.996404314822213
1.506,12.99840191769876
1.5070000000000001,13.000399520575307
1.508,13.002397123451855
1.5090000000000001,13.004394726328403
1.51,13.006392329204951
1.5110000000000001,13.0083899320815
1.512,13.01038753495805
1.5130000000000001,13.012385137834595
1.514,13.014382740711143
1.5150000000000001,13.016380343587691
1.516,13.01837794646424
1.5170000000000001,13.02037554934079
1.518,13.022373152217336
1.5190000000000001,13.024370755093884
1.52,13.026368357970432
1.5210000000000001,13.028365960846982
1.522,13.030363563723531
1.5230000000000001,13.03236116660008
1.524,13.034358769476627
1.5250000000000001,13.036356372353175
1.526,13.038353975229724
1.5270000000000001,13.040351578106272
1.528,13.04234918098282
1.5290000000000001,13.044346783859368
1.53,13.046344386735916
1.5310000000000001,13.048341989612464
1.532,13.050339592489012
1.5330000000000001,13.05233719536556
1.534,13.054334798242108
1.5350000000000001,13.056332401118656
1.536,13.058330003995204
1.537,13.060327606871752
1.538,13.0623252097483
1.539,13.064322812624848
1.54,13.066320415501398
1.541,13.068318018377946
1.542,13.070315621254494
1.543,13.072313224131042
1.544,13.07431082700759
1.545,13.076308429884138
1.546,13.078306032760686
1.547,13.080303635637234
1.548,13.082301238513782
1.549,13.08429884139033
1.55,13.086296444266878
1.551,13.088294047143426
1.552,13.090291650019974
1.553,13.092289252896522
1.554,13.09428685577307
1.555,13.09628445864962
1.556,13.098282061526168
1.557,13.100279664402716
1.558,13.102277267279264
1.559,13.104274870155812
1.56,13.10627247303236
1.561,13.108270075908909
1.562,13.110267678785457
1.563,13.112265281662005
1.564,13.114262884538553
1.565,13.1162604874151
1.566,13.118258090291649
1.567,13.120255693168197
1.568,13.122253296044745
1.569,13.124250898921291
1.57,13.12624850179784
1.571,13.128246104674387
1.572,13.130243707550935
1.573,13.132241310427483
1.574,13.134238913304031
1.575,13.13623651618058
1.576,13.13823411905713
1.577,13.14023172193368
1.578,13.142229324810229
1.579,13.144226927686775
1.58,13.146224530563323
1.581,13.148222133439871
1.582,13.15021973631642
1.583,13.152217339192967
1.584,13.154214942069515
1.585,13.156212544946063
1.586,13.158210147822611
1.587,13.16020775069916
1.588,13.162205353575708
1.589,13.164202956452256
1.59,13.166200559328804
1.591,13.168198162205352
1.592,13.1701957650819
1.593,13.172193367958448
1.594,13.174190970834996
1.595,13.176188573711546
1.596,13.178186176588094
1.597,13.180183779464642
1.598,13.18218138234119
1.599,13.184178985217738
1.6,13.186176588094286
1.601,13.188174190970834
1.602,13.190171793847382
1.603,13.19216939672393
1.604,13.194166999600478
1.605,13.196164602477026
1.606,13.198162205353574
1.607,13.200159808230122
1.608,13.20215741110667
1.609,13.204155013983218
1.61,13.206152616859766
1.611,13.208150219736314
1.612,13.210147822612862
1.613,13.212145425489412
1.614,13.21414302836596
1.615,13.216140631242508
1.616,13.218138234119056
1.617,13.220135836995604
1.618,13.222133439872152
1.619,13.2241310427487
1.62,13.226128645625248
1.621,13.228126248501797
1.622,13.230123851378345
1.623,13.232121454254893
1.624,13.23411905713144
1.625,13.236116660007989
1.6260000000000001,13.238114262884537
1.627,13.240111865761085
1.6280000000000001,13.242109468637633
1.629,13.24410707151418
1.6300000000000001,13.246104674390727
1.631,13.24810227726728
1.6320000000000001,13.250099880143829
1.633,13.252097483020377
1.6340000000000001,13.254095085896925
1.635,13.256092688773473
1.6360000000000001,13.25809029165002
1.637,13.260087894526569
1.6380000000000001,13.262085497403117
1.639,13.264083100279665
1.6400000000000001,13.266080703156211
1.641,13.26807830603276
1.6420000000000001,13.270075908909307
1.643,13.272073511785855
1.6440000000000001,13.274071114662403
1.645,13.276068717538951
1.6460000000000001,13.2780663204155
1.647,13.280063923292047
1.6480000000000001,13.282061526168595
1.649,13.284059129045144
1.6500000000000001,13.286056731921692
1.651,13.28805433479824
1.6520000000000001,13.29005193767479
1.653,13.292049540551336
1.6540000000000001,13.294047143427886
1.655,13.296044746304434
1.6560000000000001,13.298042349180982
1.657,13.30003995205753
1.6580000000000001,13.302037554934078
1.659,13.304035157810626
1.6600000000000001,13.306032760687174
1.661,13.308030363563722
1.6620000000000001,13.31002796644027
1.663,13.312025569316818
1.6640000000000001,13.314023172193366
1.665,13.316020775069914
1.666,13.318018377946462
1.667,13.320015980823012
1.668,13.32201358369956
1.669,13.324011186576108
1.67,13.326008789452656
1.671,13.328006392329204
1.672,13.330003995205752
1.673,13.3320015980823
1.674,13.333999200958848
1.675,13.335996803835396
1.676,13.337994406711944
1.677,13.339992009588492
1.678,13.34198961246504
1.679,13.343987215341588
1.68,13.345984818218136
1.681,13.347982421094684
1.682,13.349980023971233
1.683,13.35197762684778
1.684,13.353975229724329
1.685,13.355972832600878
1.686,13.357970435477426
1.687,13.359968038353976
1.688,13.361965641230524
1.689,13.36396324410707
1.69,13.36596084698362
1.691,13.367958449860168
1.692,13.369956052736717
1.693,13.371953655613265
1.694,13.37395125848981
1.695,13.37594886136636
1.696,13.377946464242909
1.697,13.379944067119457
1.698,13.381941669996005
1.699,13.383939272872553
1.7,13.3859368757491
1.701,13.387934478625647
1.702,13.389932081502195
1.703,13.391929684378743
1.704,13.393927287255291
1.705,13.39592489013184
1.706,13.397922493008387
1.707,13.399920095884935
1.708,13.401917698761483
1.709,13.403915301638031
1.71,13.40591290451458
1.711,13.40791050739113
1.712,13.409908110267676
1.713,13.411905713144224
1.714,13.413903316020772
1.715,13.415900918897322
1.716,13.41789852177387
1.717,13.419896124650418
1.718,13.421893727526966
1.719,13.423891330403514
1.72,13.425888933280062
1.721,13.427886536156612
1.722,13.42988413903316
1.723,13.431881741909708
1.724,13.433879344786256
1.725,13.435876947662804
1.726,13.437874550539352
1.727,13.4398721534159
1.728,13.441869756292448
1.729,13.443867359168996
1.73,13.445864962045544
1.731,13.447862564922092
1.732,13.44986016779864
1.733,13.451857770675188
1.734,13.453855373551736
1.735,13.455852976428284
1.736,13.457850579304832
1.737,13.45984818218138
1.738,13.461845785057928
1.739,13.463843387934478
1.74,13.465840990811026
1.741,13.467838593687574
1.742,13.469836196564122
1.743,13.47183379944067
1.744,13.473831402317218
1.745,13.475829005193766
1.746,13.477826608070314
1.747,13.479824210946862
1.748,13.48182181382341
1.749,13.48381941669996
1.75,13.485817019576508
1.7510000000000001,13.487814622453056
1.752,13.489812225329604
1.7530000000000001,13.49180982820615
1.754,13.4938074310827
1.7550000000000001,13.495805033959249
1.756,13.497802636835797
1.7570000000000001,13.499800239712345
1.758,13.501797842588893
1.7590000000000001,13.50379544546544
1.76,13.505793048341989
1.7610000000000001,13.507790651218537
1.762,13.509788254095085
1.7630000000000001,13.511785856971631
1.764,13.51378345984818
1.7650000000000001,13.515781062724727
1.766,13.517778665601275
1.7670000000000001,13.519776268477823
1.768,13.521773871354371
1.7690000000000001,13.52377147423092
1.77,13.52576907710747
1.7710000000000001,13.527766679984015
1.772,13.529764282860564
1.7730000000000001,13.531761885737112
1.774,13.53375948861366
1.7750000000000001,13.535757091490211
1.776,13.53775469436676
1.7770000000000001,13.539752297243307
1.778,13.541749900119855
1.7790000000000001,13.543747502996403
1.78,13.545745105872951
1.7810000000000001,13.5477427087495
1.782,13.549740311626048
1.7830000000000001,13.551737914502596
1.784,13.553735517379144
1.7850000000000001,13.555733120255692
1.786,13.55773072313224
1.7870000000000001,13.559728326008788
1.788,13.561725928885336
1.7890000000000001,13.563723531761884
1.79,13.565721134638432
1.7910000000000001,13.56771873751498
1.792,13.569716340391528
1.793,13.571713943268078
1.794,13.573711546144626
1.795,13.575709149021174
1.796,13.577706751897722
1.797,13.57970435477427
1.798,13.581701957650818
1.799,13.583699560527366
1.8,13.585697163403914
1.801,13.587694766280462
1.802,13.58969236915701
1.803,13.591689972033558
1.804,13.593687574910106
1.805,13.595685177786654
1.806,13.597682780663202
1.807,13.59968038353975
1.808,13.601677986416298
1.809,13.603675589292846
1.81,13.605673192169396
1.811,13.607670795045944
1.812,13.609668397922492
1.813,13.61166600079904
1.814,13.613663603675588
1.815,13.615661206552137
1.816,13.617658809428685
1.817,13.619656412305233
1.818,13.62165401518178
1.819,13.623651618058329
1.82,13.625649220934877
1.821,13.627646823811425
1.822,13.629644426687973
1.823,13.63164202956452
1.824,13.633639632441067
1.825,13.635637235317615
1.826,13.637634838194163
1.827,13.639632441070711
1.828,13.64163004394726
1.829,13.643627646823813
1.83,13.64562524970036
1.831,13.647622852576909
1.832,13.649620455453457
1.833,13.651618058330005
1.834,13.653615661206551
1.835,13.6556132640831
1.836,13.657610866959647
1.837,13.659608469836195
1.838,13.661606072712743
1.839,13.663603675589291
1.84,13.66560127846584
1.841,13.667598881342387
1.842,13.669596484218935
1.843,13.671594087095484
1.844,13.673591689972032
1.845,13.67558929284858
1.846,13.677586895725128
1.847,13.679584498601676
1.848,13.681582101478226
1.849,13.683579704354774
1.85,13.685577307231322
1.851,13.68757491010787
1.852,13.689572512984418
1.853,13.691570115860966
1.854,13.693567718737514
1.855,13.695565321614062
1.856,13.69756292449061
1.857,13.699560527367158
1.858,13.701558130243706
1.859,13.703555733120254
1.86,13.705553335996802
1.861,13.70755093887335
1.862,13.709548541749898
1.863,13.711546144626446
1.864,13.713543747502994
1.865,13.715541350379544
1.866,13.717538953256092
1.867,13.71953655613264
1.868,13.721534159009188
1.869,13.723531761885736
1.87,13.725529364762284
1.871,13.727526967638832
1.872,13.72952457051538
1.873,13.731522173391928
1.874,13.733519776268476
1.875,13.735517379145024
1.8760000000000001,13.737514982021573
1.877,13.73951258489812
1.8780000000000001,13.741510187774669
1.879,13.743507790651217
1.8800000000000001,13.745505393527765
1.881,13.747502996404313
1.8820000000000001,13.74950059928086
1.883,13.75149820215741
1.8840000000000001,13.75349580503396
1.885,13.755493407910508
1.8860000000000001,13.757491010787056
1.887,13.759488613663605
1.8880000000000001,13.76148621654015
1.889,13.7634838194167
1.8900000000000001,13.765481422293249
1.891,13.767479025169797
1.8920000000000001,13.769476628046345
1.893,13.771474230922893
1.8940000000000001,13.77347183379944
1.895,13.775469436675989
1.8960000000000001,13.777467039552535
1.897,13.779464642429083
1.8980000000000001,13.781462245305631
1.899,13.78345984818218
1.9000000000000001,13.785457451058727
1.901,13.787455053935275
1.9020000000000001,13.789452656811823
1.903,13.791450259688371
1.9040000000000001,13.79344786256492
1.905,13.79544546544147
1.9060000000000001,13.797443068318016
1.907,13.799440671194564
1.9080000000000001,13.801438274071112
1.909,13.80343587694766
1.9100000000000001,13.80543347982421
1.911,13.807431082700758
1.9120000000000001,13.809428685577306
1.913,13.811426288453854
1.9140000000000001,13.813423891330402
1.915,13.81542149420695
1.9160000000000001,13.817419097083498
1.917,13.819416699960046
1.9180000000000001,13.821414302836594
1.919,13.823411905713144
1.92,13.825409508589692
1.921,13.82740711146624
1.922,13.829404714342788
1.923,13.831402317219336
1.924,13.833399920095884
1.925,13.835397522972432
1.926,13.83739512584898
1.927,13.839392728725528
1.928,13.841390331602076
1.929,13.843387934478624
1.93,13.845385537355172
1.931,13.84738314023172
1.932,13.849380743108268
1.933,13.851378345984816
1.934,13.853375948861364
1.935,13.855373551737912
1.936,13.85737115461446
1.937,13.85936875749101
1.938,13.861366360367558
1.939,13.863363963244106
1.94,13.865361566120654
1.941,13.867359168997202
1.942,13.86935677187375
1.943,13.8713543747503
1.944,13.873351977626848
1.945,13.875349580503396
1.946,13.877347183379944
1.947,13.87934478625649
1.948,13.88134238913304
1.949,13.883339992009589
1.95,13.885337594886137
1.951,13.887335197762685
1.952,13.889332800639233
1.953,13.89133040351578
1.954,13.893328006392329
1.955,13.895325609268877
1.956,13.897323212145425
1.957,13.899320815021971
1.958,13.90131841789852
1.959,13.903316020775067
1.96,13.905313623651615
1.961,13.907311226528163
1.962,13.909308829404711
1.963,13.91130643228126
1.964,13.91330403515781
1.965,13.915301638034355
1.966,13.917299240910904
1.967,13.919296843787452
1.968,13.921294446664
1.969,13.92329204954055
1.97,13.925289652417096
1.971,13.927287255293646
1.972,13.929284858170194
1.973,13.931282461046742
1.974,13.933280063923291
1.975,13.93527766679984
1.976,13.937275269676388
1.977,13.939272872552936
1.978,13.941270475429484
1.979,13.943268078306032
1.98,13.94526568118258
1.981,13.947263284059128
1.982,13.949260886935676
1.983,13.951258489812224
1.984,13.953256092688772
1.985,13.95525369556532
1.986,13.957251298441868
1.987,13.959248901318416
1.988,13.961246504194964
1.989,13.963244107071512
1.99,13.96524170994806
1.991,13.967239312824608
1.992,13.969236915701158
1.993,13.971234518577706
1.994,13.973232121454254
1.995,13.975229724330802
1.996,13.97722732720735
1.997,13.979224930083898
1.998,13.981222532960446
1.999,13.983220135836994
2.0,13.985217738713542
2.001,13.98721534159009
2.0020000000000002,13.989212944466638
2.003,13.991210547343186
2.004,13.993208150219736
2.005,13.995205753096284
2.0060000000000002,13.99720335597283
2.007,13.99920095884938
2.008,14.001198561725928
2.009,14.003196164602477
2.0100000000000002,14.005193767479025
2.011,14.007191370355573
2.012,14.00918897323212
2.013,14.011186576108669
2.0140000000000002,14.013184178985217
2.015,14.015181781861765
2.016,14.017179384738313
2.017,14.01917698761486
2.0180000000000002,14.021174590491407
2.019,14.023172193367955
2.02,14.025169796244503
2.021,14.027167399121051
2.0220000000000002,14.0291650019976
2.023,14.03116260487415
2.024,14.033160207750695
2.025,14.035157810627243
2.0260000000000002,14.037155413503791
2.027,14.03915301638034
2.028,14.041150619256891
2.029,14.04314822213344
2.0300000000000002,14.045145825009987
2.031,14.047143427886535
2.032,14.049141030763083
2.033,14.051138633639631
2.0340000000000003,14.05313623651618
2.035,14.055133839392727
2.036,14.057131442269275
2.037,14.059129045145824
2.0380000000000003,14.061126648022372
2.039,14.06312425089892
2.04,14.065121853775468
2.041,14.067119456652016
2.0420000000000003,14.069117059528564
2.043,14.071114662405112
2.044,14.07311226528166
2.045,14.075109868158208
2.0460000000000003,14.077107471034758
2.047,14.079105073911306
2.048,14.081102676787854
2.049,14.083100279664402
2.05,14.08509788254095
2.051,14.087095485417498
2.052,14.089093088294046
2.053,14.091090691170594
2.054,14.093088294047142
2.055,14.09508589692369
2.056,14.097083499800238
2.057,14.099081102676786
2.058,14.101078705553334
2.059,14.103076308429882
2.06,14.10507391130643
2.061,14.107071514182978
2.062,14.109069117059526
2.063,14.111066719936074
2.064,14.113064322812624
2.065,14.115061925689172
2.066,14.11705952856572
2.067,14.119057131442268
2.068,14.121054734318816
2.069,14.123052337195364
2.07,14.125049940071913
2.071,14.12704754294846
2.072,14.129045145825009
2.073,14.131042748701557
2.074,14.133040351578105
2.075,14.135037954454653
2.076,14.1370355573312
2.077,14.139033160207749
2.078,14.141030763084297
2.079,14.143028365960843
2.08,14.145025968837391
2.081,14.14702357171394
2.082,14.14902117459049
2.083,14.15101877746704
2.084,14.153016380343589
2.085,14.155013983220137
2.086,14.157011586096685
2.087,14.159009188973233
2.088,14.16100679184978
2.089,14.163004394726329
2.09,14.165001997602875
2.091,14.166999600479423
2.092,14.168997203355971
2.093,14.17099480623252
2.094,14.172992409109067
2.095,14.174990011985615
2.096,14.176987614862163
2.097,14.178985217738711
2.098,14.18098282061526
2.099,14.182980423491808
2.1,14.184978026368356
2.101,14.186975629244904
2.102,14.188973232121452
2.103,14.190970834998
2.104,14.19296843787455
2.105,14.194966040751098
2.106,14.196963643627646
2.107,14.198961246504194
2.108,14.200958849380742
2.109,14.20295645225729
2.11,14.204954055133838
2.111,14.206951658010386
2.112,14.208949260886934
2.113,14.210946863763482
2.114,14.21294446664003
2.115,14.214942069516578
2.116,14.216939672393126
2.117,14.218937275269674
2.118,14.220934878146224
2.119,14.222932481022772
2.12,14.22493008389932
2.121,14.226927686775868
2.122,14.228925289652416
2.123,14.230922892528964
2.124,14.232920495405512
2.125,14.23491809828206
2.126,14.236915701158608
2.1270000000000002,14.238913304035156
2.128,14.240910906911704
2.129,14.242908509788252
2.13,14.2449061126648
2.1310000000000002,14.246903715541348
2.132,14.248901318417897
2.133,14.250898921294445
2.134,14.252896524170993
2.1350000000000002,14.25489412704754
2.136,14.25689172992409
2.137,14.25888933280064
2.138,14.260886935677188
2.1390000000000002,14.262884538553736
2.14,14.264882141430284
2.141,14.26687974430683
2.142,14.26887734718338
2.1430000000000002,14.270874950059929
2.144,14.272872552936477
2.145,14.274870155813025
2.146,14.276867758689573
2.1470000000000002,14.27886536156612
2.148,14.280862964442669
2.149,14.282860567319217
2.15,14.284858170195765
2.1510000000000002,14.286855773072311
2.152,14.28885337594886
2.153,14.290850978825407
2.154,14.292848581701955
2.1550000000000002,14.294846184578503
2.156,14.296843787455051
2.157,14.2988413903316
2.158,14.30083899320815
2.1590000000000003,14.302836596084695
2.16,14.304834198961244
2.161,14.306831801837792
2.162,14.30882940471434
2.1630000000000003,14.31082700759089
2.164,14.312824610467436
2.165,14.314822213343986
2.166,14.316819816220534
2.1670000000000003,14.318817419097082
2.168,14.32081502197363
2.169,14.322812624850178
2.17,14.324810227726726
2.1710000000000003,14.326807830603274
2.172,14.328805433479824
2.173,14.330803036356372
2.174,14.33280063923292
2.1750000000000003,14.334798242109468
2.176,14.336795844986016
2.177,14.338793447862564
2.178,14.340791050739112
2.179,14.34278865361566
2.18,14.344786256492208
2.181,14.346783859368756
2.182,14.348781462245304
2.183,14.350779065121852
2.184,14.3527766679984
2.185,14.354774270874948
2.186,14.356771873751496
2.187,14.358769476628044
2.188,14.360767079504592
2.189,14.36276468238114
2.19,14.36476228525769
2.191,14.366759888134238
2.192,14.368757491010786
2.193,14.370755093887334
2.194,14.372752696763882
2.195,14.37475029964043
2.196,14.376747902516978
2.197,14.378745505393526
2.198,14.380743108270076
2.199,14.382740711146624
2.2,14.38473831402317
2.201,14.38673591689972
2.202,14.388733519776268
2.203,14.390731122652817
2.204,14.392728725529365
2.205,14.39472632840591
2.206,14.39672393128246
2.207,14.398721534159009
2.208,14.400719137035557
2.209,14.402716739912105
2.21,14.404714342788653
2.211,14.4067119456652
2.212,14.408709548541747
2.213,14.410707151418295
2.214,14.412704754294843
2.215,14.414702357171391
2.216,14.41669996004794
2.217,14.41869756292449
2.218,14.420695165801035
2.219,14.422692768677583
2.22,14.424690371554131
2.221,14.42668797443068
2.222,14.42868557730723
2.223,14.430683180183776
2.224,14.432680783060324
2.225,14.434678385936872
2.226,14.436675988813423
2.227,14.438673591689971
2.228,14.44067119456652
2.229,14.442668797443067
2.23,14.444666400319615
2.231,14.446664003196164
2.232,14.448661606072712
2.233,14.45065920894926
2.234,14.452656811825808
2.235,14.454654414702356
2.236,14.456652017578904
2.237,14.458649620455452
2.238,14.460647223332
2.239,14.462644826208548
2.24,14.464642429085096
2.241,14.466640031961644
2.242,14.468637634838192
2.243,14.47063523771474
2.244,14.47263284059129
2.245,14.474630443467838
2.246,14.476628046344386
2.247,14.478625649220934
2.248,14.480623252097482
2.249,14.48262085497403
2.25,14.484618457850578
2.251,14.486616060727126
2.2520000000000002,14.488613663603674
2.253,14.490611266480222
2.254,14.49260886935677
2.255,14.494606472233318
2.2560000000000002,14.496604075109866
2.257,14.498601677986414
2.258,14.500599280862962
2.259,14.50259688373951
2.2600000000000002,14.50459448661606
2.261,14.506592089492608
2.262,14.508589692369156
2.263,14.510587295245704
2.2640000000000002,14.512584898122252
2.265,14.5145825009988
2.266,14.516580103875349
2.267,14.518577706751897
2.2680000000000002,14.520575309628445
2.269,14.522572912504993
2.27,14.52457051538154
2.271,14.526568118258089
2.2720000000000002,14.528565721134637
2.273,14.530563324011183
2.274,14.532560926887731
2.275,14.53455852976428
2.2760000000000002,14.536556132640827
2.277,14.538553735517375
2.278,14.540551338393923
2.279,14.542548941270471
2.2800000000000002,14.544546544147025
2.281,14.546544147023573
2.282,14.54854174990012
2.283,14.550539352776669
2.2840000000000003,14.552536955653215
2.285,14.554534558529763
2.286,14.556532161406311
2.287,14.55852976428286
2.2880000000000003,14.560527367159407
2.289,14.562524970035955
2.29,14.564522572912503
2.291,14.566520175789051
2.2920000000000003,14.5685177786656
2.293,14.570515381542148
2.294,14.572512984418696
2.295,14.574510587295244
2.2960000000000003,14.576508190171792
2.297,14.57850579304834
2.298,14.58050339592489
2.299,14.582500998801438
2.3000000000000003,14.584498601677986
2.301,14.586496204554534
2.302,14.588493807431082
2.303,14.59049141030763
2.3040000000000003,14.592489013184178
2.305,14.594486616060726
2.306,14.596484218937274
2.307,14.598481821813822
2.308,14.60047942469037
2.309,14.602477027566918
2.31,14.604474630443466
2.311,14.606472233320014
2.312,14.608469836196562
2.313,14.61046743907311
2.314,14.612465041949658
2.315,14.614462644826206
2.316,14.616460247702756
2.317,14.618457850579304
2.318,14.620455453455852
2.319,14.6224530563324
2.32,14.624450659208948
2.321,14.626448262085496
2.322,14.628445864962044
2.323,14.630443467838592
2.324,14.63244107071514
2.325,14.634438673591688
2.326,14.636436276468237
2.327,14.638433879344785
2.328,14.640431482221333
2.329,14.64242908509788
2.33,14.644426687974429
2.331,14.646424290850977
2.332,14.648421893727525
2.333,14.650419496604073
2.334,14.652417099480624
2.335,14.65441470235717
2.336,14.65641230523372
2.337,14.658409908110269
2.338,14.660407510986817
2.339,14.662405113863365
2.34,14.664402716739913
2.341,14.66640031961646
2.342,14.668397922493009
2.343,14.670395525369557
2.344,14.672393128246105
2.345,14.674390731122651
2.346,14.6763883339992
2.347,14.678385936875747
2.348,14.680383539752295
2.349,14.682381142628843
2.35,14.684378745505391
2.351,14.68637634838194
2.352,14.68837395125849
2.353,14.690371554135035
2.354,14.692369157011584
2.355,14.694366759888132
2.356,14.69636436276468
2.357,14.69836196564123
2.358,14.700359568517776
2.359,14.702357171394326
2.36,14.704354774270874
2.361,14.706352377147422
2.362,14.70834998002397
2.363,14.710347582900518
2.364,14.712345185777066
2.365,14.714342788653614
2.366,14.716340391530162
2.367,14.71833799440671
2.368,14.720335597283258
2.369,14.722333200159806
2.37,14.724330803036356
2.371,14.726328405912904
2.372,14.728326008789452
2.373,14.730323611666
2.374,14.732321214542548
2.375,14.734318817419096
2.376,14.736316420295644
2.3770000000000002,14.738314023172192
2.378,14.74031162604874
2.379,14.742309228925288
2.38,14.744306831801836
2.3810000000000002,14.746304434678384
2.382,14.748302037554932
2.383,14.75029964043148
2.384,14.752297243308028
2.3850000000000002,14.754294846184576
2.386,14.756292449061124
2.387,14.758290051937673
2.388,14.76028765481422
2.3890000000000002,14.76228525769077
2.39,14.764282860567318
2.391,14.766280463443866
2.392,14.768278066320416
2.3930000000000002,14.770275669196964
2.394,14.77227327207351
2.395,14.77427087495006
2.396,14.776268477826608
2.3970000000000002,14.778266080703157
2.398,14.780263683579705
2.399,14.78226128645625
2.4,14.7842588893328
2.4010000000000002,14.786256492209349
2.402,14.788254095085897
2.403,14.790251697962445
2.404,14.792249300838993
2.4050000000000002,14.79424690371554
2.406,14.796244506592087
2.407,14.798242109468635
2.408,14.800239712345183
2.4090000000000003,14.802237315221731
2.41,14.80423491809828
2.411,14.80623252097483
2.412,14.808230123851375
2.4130000000000003,14.810227726727923
2.414,14.812225329604471
2.415,14.81422293248102
2.416,14.81622053535757
2.4170000000000003,14.818218138234116
2.418,14.820215741110664
2.419,14.822213343987212
2.42,14.824210946863762
2.4210000000000003,14.82620854974031
2.422,14.828206152616858
2.423,14.830203755493406
2.424,14.832201358369954
2.4250000000000003,14.834198961246504
2.426,14.836196564123052
2.427,14.8381941669996
2.428,14.840191769876148
2.4290000000000003,14.842189372752696
2.43,14.844186975629244
2.431,14.846184578505792
2.432,14.84818218138234
2.433,14.850179784258888
2.434,14.852177387135436
2.435,14.854174990011984
2.436,14.856172592888532
2.437,14.85817019576508
2.438,14.860167798641628
2.439,14.862165401518176
2.44,14.864163004394724
2.441,14.866160607271272
2.442,14.86815821014782
2.443,14.87015581302437
2.444,14.872153415900918
2.445,14.874151018777466
2.446,14.876148621654014
2.447,14.878146224530562
2.448,14.88014382740711
2.449,14.882141430283658
2.45,14.884139033160206
2.451,14.886136636036754
2.452,14.888134238913302
2.453,14.89013184178985
2.454,14.8921294446664
2.455,14.894127047542948
2.456,14.896124650419496
2.457,14.898122253296044
2.458,14.90011985617259
2.459,14.90211745904914
2.46,14.904115061925689
2.461,14.906112664802237
2.462,14.908110267678785
2.463,14.910107870555333
2.464,14.91210547343188
2.465,14.914103076308429
2.466,14.916100679184977
2.467,14.918098282061525
2.468,14.920095884938071
2.469,14.92209348781462
2.47,14.924091090691167
2.471,14.926088693567715
2.472,14.928086296444263
2.473,14.930083899320811
2.474,14.93208150219736
2.475,14.93407910507391
2.476,14.936076707950455
2.477,14.938074310827004
2.478,14.940071913703552
2.479,14.942069516580103
2.48,14.944067119456651
2.481,14.9460647223332
2.482,14.948062325209747
2.483,14.950059928086295
2.484,14.952057530962843
2.485,14.954055133839391
2.486,14.95605273671594
2.487,14.958050339592488
2.488,14.960047942469036
2.489,14.962045545345584
2.49,14.964043148222132
2.491,14.96604075109868
2.492,14.968038353975228
2.493,14.970035956851776
2.494,14.972033559728324
2.495,14.974031162604872
2.496,14.97602876548142
2.497,14.97802636835797
2.498,14.980023971234518
2.499,14.982021574111066
2.5,14.984019176987614
2.501,14.986016779864162
2.5020000000000002,14.98801438274071
2.503,14.990011985617258
2.504,14.992009588493806
2.505,14.994007191370354
2.5060000000000002,14.996004794246902
2.507,14.99800239712345
2.508,14.999999999999998
2.509,15.001997602876546
2.5100000000000002,15.003995205753094
2.511,15.005992808629642
2.512,15.00799041150619
2.513,15.009988014382738
2.5140000000000002,15.011985617259286
2.515,15.013983220135836
2.516,15.015980823012384
2.517,15.017978425888932
2.5180000000000002,15.01997602876548
2.519,15.021973631642028
2.52,15.023971234518577
2.521,15.025968837395125
2.5220000000000002,15.027966440271673
2.523,15.02996404314822
2.524,15.031961646024769
2.525,15.033959248901317
2.5260000000000002,15.035956851777865
2.527,15.037954454654413
2.528,15.03995205753096
2.529,15.041949660407507
2.5300000000000002,15.043947263284055
2.531,15.045944866160603
2.532,15.047942469037151
2.533,15.049940071913705
2.5340000000000003,15.051937674790253
2.535,15.0539352776668
2.536,15.055932880543349
2.537,15.057930483419897
2.5380000000000003,15.059928086296445
2.539,15.061925689172991
2.54,15.06392329204954
2.541,15.065920894926087
2.5420000000000003,15.067918497802635
2.543,15.069916100679183
2.544,15.071913703555731
2.545,15.07391130643228
2.5460000000000003,15.075908909308827
2.547,15.077906512185375
2.548,15.079904115061924
2.549,15.081901717938472
2.5500000000000003,15.08389932081502
2.551,15.08589692369157
2.552,15.087894526568116
2.553,15.089892129444666
2.5540000000000003,15.091889732321214
2.555,15.093887335197762
2.556,15.09588493807431
2.557,15.097882540950858
2.5580000000000003,15.099880143827406
2.559,15.101877746703954
2.56,15.103875349580502
2.561,15.10587295245705
2.562,15.107870555333598
2.563,15.109868158210146
2.564,15.111865761086694
2.565,15.113863363963242
2.566,15.11586096683979
2.567,15.117858569716338
2.568,15.119856172592886
2.569,15.121853775469436
2.57,15.123851378345984
2.571,15.125848981222532
2.572,15.12784658409908
2.573,15.129844186975628
2.574,15.131841789852176
2.575,15.133839392728724
2.576,15.135836995605272
2.577,15.13783459848182
2.578,15.139832201358368
2.579,15.141829804234916
2.58,15.143827407111464
2.581,15.145825009988013
2.582,15.14782261286456
2.583,15.149820215741109
2.584,15.151817818617657
2.585,15.153815421494205
2.586,15.155813024370753
2.587,15.157810627247304
2.588,15.15980823012385
2.589,15.1618058330004
2.59,15.163803435876948
2.591,15.165801038753496
2.592,15.167798641630045
2.593,15.16979624450659
2.594,15.17179384738314
2.595,15.173791450259689
2.596,15.175789053136237
2.597,15.177786656012785
2.598,15.179784258889333
2.599,15.18178186176588
2.6,15.183779464642427
2.601,15.185777067518975
2.602,15.187774670395523
2.603,15.189772273272071
2.604,15.19176987614862
2.605,15.193767479025167
2.606,15.195765081901715
2.607,15.197762684778263
2.608,15.199760287654811
2.609,15.20175789053136
2.61,15.20375549340791
2.611,15.205753096284456
2.612,15.207750699161004
2.613,15.209748302037552
2.614,15.211745904914102
2.615,15.21374350779065
2.616,15.215741110667198
2.617,15.217738713543746
2.618,15.219736316420294
2.619,15.221733919296842
2.62,15.22373152217339
2.621,15.225729125049938
2.622,15.227726727926486
2.623,15.229724330803036
2.624,15.231721933679584
2.625,15.233719536556132
2.626,15.23571713943268
2.6270000000000002,15.237714742309228
2.628,15.239712345185776
2.629,15.241709948062324
2.63,15.243707550938872
2.6310000000000002,15.24570515381542
2.632,15.247702756691968
2.633,15.249700359568516
2.634,15.251697962445064
2.6350000000000002,15.253695565321612
2.636,15.25569316819816
2.637,15.257690771074708
2.638,15.259688373951256
2.6390000000000002,15.261685976827804
2.64,15.263683579704352
2.641,15.265681182580902
2.642,15.26767878545745
2.6430000000000002,15.269676388333998
2.644,15.271673991210546
2.645,15.273671594087094
2.646,15.275669196963642
2.6470000000000002,15.27766679984019
2.648,15.27966440271674
2.649,15.281662005593288
2.65,15.283659608469836
2.6510000000000002,15.285657211346384
2.652,15.28765481422293
2.653,15.28965241709948
2.654,15.291650019976029
2.6550000000000002,15.293647622852577
2.656,15.295645225729125
2.657,15.297642828605673
2.658,15.29964043148222
2.6590000000000003,15.301638034358769
2.66,15.303635637235317
2.661,15.305633240111865
2.662,15.307630842988411
2.6630000000000003,15.30962844586496
2.664,15.311626048741507
2.665,15.313623651618055
2.666,15.315621254494603
2.6670000000000003,15.317618857371151
2.668,15.3196164602477
2.669,15.32161406312425
2.67,15.323611666000795
2.6710000000000003,15.325609268877344
2.672,15.327606871753892
2.673,15.32960447463044
2.674,15.33160207750699
2.6750000000000003,15.333599680383536
2.676,15.335597283260086
2.677,15.337594886136635
2.678,15.339592489013183
2.6790000000000003,15.341590091889731
2.68,15.34358769476628
2.681,15.345585297642828
2.682,15.347582900519376
2.6830000000000003,15.349580503395924
2.684,15.351578106272472
2.685,15.35357570914902
2.686,15.355573312025568
2.6870000000000003,15.357570914902116
2.688,15.359568517778664
2.689,15.361566120655212
2.69,15.36356372353176
2.691,15.365561326408308
2.692,15.367558929284856
2.693,15.369556532161404
2.694,15.371554135037952
2.695,15.373551737914502
2.696,15.37554934079105
2.697,15.377546943667598
2.698,15.379544546544146
2.699,15.381542149420694
2.7,15.383539752297242
2.701,15.38553735517379
2.702,15.387534958050338
2.703,15.389532560926886
2.704,15.391530163803434
2.705,15.393527766679982
2.706,15.39552536955653
2.707,15.397522972433078
2.708,15.399520575309626
2.709,15.401518178186176
2.71,15.403515781062724
2.711,15.40551338393927
2.712,15.40751098681582
2.713,15.409508589692368
2.714,15.411506192568917
2.715,15.413503795445465
2.716,15.415501398322013
2.717,15.41749900119856
2.718,15.419496604075109
2.719,15.421494206951657
2.72,15.423491809828205
2.721,15.425489412704753
2.722,15.4274870155813
2.723,15.429484618457847
2.724,15.431482221334395
2.725,15.433479824210943
2.726,15.435477427087491
2.727,15.43747502996404
2.728,15.43947263284059
2.729,15.441470235717135
2.73,15.443467838593683
2.731,15.445465441470237
2.732,15.447463044346785
2.733,15.449460647223331
2.734,15.45145825009988
2.735,15.453455852976427
2.736,15.455453455852975
2.737,15.457451058729523
2.738,15.459448661606071
2.739,15.46144626448262
2.74,15.463443867359167
2.741,15.465441470235715
2.742,15.467439073112264
2.743,15.469436675988812
2.744,15.47143427886536
2.745,15.473431881741908
2.746,15.475429484618456
2.747,15.477427087495004
2.748,15.479424690371552
2.749,15.481422293248102
2.75,15.48341989612465
2.751,15.485417499001198
2.7520000000000002,15.487415101877746
2.753,15.489412704754294
2.754,15.491410307630842
2.755,15.49340791050739
2.7560000000000002,15.495405513383938
2.757,15.497403116260486
2.758,15.499400719137034
2.759,15.501398322013582
2.7600000000000002,15.50339592489013
2.761,15.505393527766678
2.762,15.507391130643226
2.763,15.509388733519774
2.7640000000000002,15.511386336396322
2.765,15.51338393927287
2.766,15.515381542149418
2.767,15.517379145025968
2.7680000000000002,15.519376747902516
2.769,15.521374350779064
2.77,15.523371953655612
2.771,15.52536955653216
2.7720000000000002,15.527367159408708
2.773,15.529364762285256
2.774,15.531362365161804
2.775,15.533359968038353
2.7760000000000002,15.5353575709149
2.777,15.537355173791449
2.778,15.539352776667997
2.779,15.541350379544545
2.7800000000000002,15.543347982421093
2.781,15.54534558529764
2.782,15.547343188174189
2.783,15.549340791050737
2.7840000000000003,15.551338393927283
2.785,15.553335996803831
2.786,15.555333599680385
2.787,15.55733120255693
2.7880000000000003,15.55932880543348
2.789,15.561326408310029
2.79,15.563324011186577
2.791,15.565321614063125
2.7920000000000003,15.567319216939673
2.793,15.56931681981622
2.794,15.571314422692769
2.795,15.573312025569315
2.7960000000000003,15.575309628445863
2.797,15.577307231322411
2.798,15.57930483419896
2.799,15.581302437075507
2.8000000000000003,15.583300039952055
2.801,15.585297642828603
2.802,15.587295245705151
2.803,15.5892928485817
2.8040000000000003,15.59129045145825
2.805,15.593288054334796
2.806,15.595285657211344
2.807,15.597283260087892
2.8080000000000003,15.59928086296444
2.809,15.60127846584099
2.81,15.603276068717538
2.811,15.605273671594086
2.8120000000000003,15.607271274470634
2.813,15.609268877347182
2.814,15.61126648022373
2.815,15.613264083100278
2.816,15.615261685976826
2.817,15.617259288853374
2.818,15.619256891729922
2.819,15.62125449460647
2.82,15.623252097483018
2.821,15.625249700359566
2.822,15.627247303236116
2.823,15.629244906112664
2.824,15.631242508989212
2.825,15.63324011186576
2.826,15.635237714742308
2.827,15.637235317618856
2.828,15.639232920495404
2.829,15.641230523371952
2.83,15.6432281262485
2.831,15.645225729125048
2.832,15.647223332001596
2.833,15.649220934878144
2.834,15.651218537754692
2.835,15.65321614063124
2.836,15.655213743507788
2.837,15.657211346384337
2.838,15.659208949260885
2.839,15.661206552137433
2.84,15.663204155013982
2.841,15.66520175789053
2.842,15.66719936076708
2.843,15.669196963643628
2.844,15.671194566520176
2.845,15.673192169396724
2.846,15.67518977227327
2.847,15.67718737514982
2.848,15.679184978026369
2.849,15.681182580902917
2.85,15.683180183779465
2.851,15.685177786656013
2.852,15.68717538953256
2.853,15.689172992409109
2.854,15.691170595285657
2.855,15.693168198162205
2.856,15.695165801038751
2.857,15.6971634039153
2.858,15.699161006791847
2.859,15.701158609668395
2.86,15.703156212544943
2.861,15.705153815421491
2.862,15.70715141829804
2.863,15.70914902117459
2.864,15.711146624051135
2.865,15.713144226927684
2.866,15.715141829804232
2.867,15.71713943268078
2.868,15.71913703555733
2.869,15.721134638433876
2.87,15.723132241310426
2.871,15.725129844186974
2.872,15.727127447063522
2.873,15.72912504994007
2.874,15.731122652816618
2.875,15.733120255693166
2.876,15.735117858569716
2.8770000000000002,15.737115461446264
2.878,15.739113064322812
2.879,15.74111066719936
2.88,15.743108270075908
2.8810000000000002,15.745105872952456
2.882,15.747103475829004
2.883,15.749101078705552
2.884,15.7510986815821
2.8850000000000002,15.753096284458648
2.886,15.755093887335196
2.887,15.757091490211744
2.888,15.759089093088292
2.8890000000000002,15.76108669596484
2.89,15.763084298841388
2.891,15.765081901717936
2.892,15.767079504594484
2.8930000000000002,15.769077107471032
2.894,15.771074710347582
2.895,15.77307231322413
2.896,15.775069916100678
2.8970000000000002,15.777067518977226
2.898,15.779065121853774
2.899,15.781062724730322
2.9,15.78306032760687
2.9010000000000002,15.785057930483418
2.902,15.787055533359966
2.903,15.789053136236516
2.904,15.791050739113064
2.9050000000000002,15.79304834198961
2.906,15.79504594486616
2.907,15.797043547742708
2.908,15.799041150619257
2.9090000000000003,15.801038753495805
2.91,15.80303635637235
2.911,15.8050339592489
2.912,15.807031562125449
2.9130000000000003,15.809029165001997
2.914,15.811026767878545
2.915,15.813024370755093
2.916,15.81502197363164
2.9170000000000003,15.817019576508187
2.918,15.819017179384735
2.919,15.821014782261283
2.92,15.823012385137831
2.9210000000000003,15.82500998801438
2.922,15.82700759089093
2.923,15.829005193767475
2.924,15.831002796644023
2.9250000000000003,15.833000399520571
2.926,15.83499800239712
2.927,15.83699560527367
2.928,15.838993208150216
2.9290000000000003,15.840990811026764
2.93,15.842988413903315
2.931,15.844986016779863
2.932,15.846983619656411
2.9330000000000003,15.84898122253296
2.934,15.850978825409507
2.935,15.852976428286055
2.936,15.854974031162604
2.9370000000000003,15.856971634039152
2.938,15.8589692369157
2.939,15.860966839792248
2.94,15.862964442668796
2.9410000000000003,15.864962045545344
2.942,15.866959648421892
2.943,15.86895725129844
2.944,15.870954854174988
2.945,15.872952457051536
2.946,15.874950059928084
2.947,15.876947662804632
2.948,15.878945265681182
2.949,15.88094286855773
2.95,15.882940471434278
2.951,15.884938074310826
2.952,15.886935677187374
2.953,15.888933280063922
2.954,15.89093088294047
2.955,15.892928485817018
2.956,15.894926088693566
2.957,15.896923691570114
2.958,15.898921294446662
2.959,15.90091889732321
2.96,15.902916500199758
2.961,15.904914103076306
2.962,15.906911705952854
2.963,15.908909308829402
2.964,15.91090691170595
2.965,15.9129045145825
2.966,15.914902117459048
2.967,15.916899720335596
2.968,15.918897323212144
2.969,15.920894926088693
2.97,15.92289252896524
2.971,15.924890131841789
2.972,15.926887734718337
2.973,15.928885337594885
2.974,15.930882940471433
2.975,15.93288054334798
2.976,15.934878146224529
2.977,15.936875749101077
2.978,15.938873351977623
2.979,15.940870954854171
2.98,15.94286855773072
2.981,15.944866160607267
2.982,15.946863763483815
2.983,15.948861366360363
2.984,15.950858969236917
2.985,15.952856572113465
2.986,15.954854174990013
2.987,15.95685177786656
2.988,15.958849380743109
2.989,15.960846983619655
2.99,15.962844586496203
2.991,15.964842189372751
2.992,15.9668397922493
2.993,15.968837395125847
2.994,15.970834998002395
2.995,15.972832600878943
2.996,15.974830203755491
2.997,15.97682780663204
2.998,15.978825409508588
2.999,15.980823012385136
3.0,15.982820615261684
3.001,15.984818218138232
3.0020000000000002,15.98681582101478
3.003,15.98881342389133
3.004,15.990811026767878
3.005,15.992808629644426
3.0060000000000002,15.994806232520974
3.007,15.996803835397522
3.008,15.99880143827407
3.009,16.000799041150618
3.0100000000000002,16.002796644027164
3.011,16.004794246903714
3.012,16.006791849780264
3.013,16.00878945265681
3.0140000000000002,16.01078705553336
3.015,16.012784658409906
3.016,16.014782261286456
3.017,16.016779864163002
3.0180000000000002,16.018777467039552
3.019,16.0207750699161
3.02,16.022772672792648
3.021,16.024770275669194
3.0220000000000002,16.026767878545744
3.023,16.02876548142229
3.024,16.03076308429884
3.025,16.032760687175386
3.0260000000000002,16.034758290051936
3.027,16.036755892928483
3.028,16.038753495805032
3.029,16.040751098681582
3.0300000000000002,16.04274870155813
3.031,16.04474630443468
3.032,16.046743907311225
3.033,16.048741510187774
3.0340000000000003,16.05073911306432
3.035,16.05273671594087
3.036,16.054734318817417
3.037,16.056731921693967
3.0380000000000003,16.058729524570513
3.039,16.060727127447063
3.04,16.06272473032361
3.041,16.06472233320016
3.0420000000000003,16.066719936076705
3.043,16.068717538953255
3.044,16.0707151418298
3.045,16.07271274470635
3.0460000000000003,16.074710347582897
3.047,16.076707950459447
3.048,16.078705553335997
3.049,16.080703156212543
3.0500000000000003,16.082700759089093
3.051,16.08469836196564
3.052,16.08669596484219
3.053,16.088693567718735
3.0540000000000003,16.090691170595285
3.055,16.09268877347183
3.056,16.09468637634838
3.057,16.096683979224927
3.0580000000000003,16.098681582101477
3.059,16.100679184978024
3.06,16.102676787854573
3.061,16.10467439073112
3.0620000000000003,16.10667199360767
3.063,16.108669596484216
3.064,16.110667199360766
3.065,16.112664802237315
3.0660000000000003,16.11466240511386
3.067,16.11666000799041
3.068,16.118657610866958
3.069,16.120655213743508
3.0700000000000003,16.122652816620054
3.071,16.124650419496604
3.072,16.12664802237315
3.073,16.1286456252497
3.074,16.130643228126246
3.075,16.132640831002796
3.076,16.134638433879342
3.077,16.136636036755892
3.078,16.138633639632438
3.079,16.140631242508988
3.08,16.142628845385534
3.081,16.144626448262084
3.082,16.14662405113863
3.083,16.14862165401518
3.084,16.15061925689173
3.085,16.152616859768276
3.086,16.154614462644826
3.087,16.156612065521372
3.088,16.158609668397922
3.089,16.16060727127447
3.09,16.162604874151018
3.091,16.164602477027564
3.092,16.166600079904114
3.093,16.16859768278066
3.094,16.17059528565721
3.095,16.172592888533757
3.096,16.174590491410306
3.097,16.176588094286853
3.098,16.178585697163403
3.099,16.18058330003995
3.1,16.1825809029165
3.101,16.18457850579305
3.102,16.186576108669595
3.103,16.188573711546145
3.104,16.19057131442269
3.105,16.19256891729924
3.106,16.194566520175787
3.107,16.196564123052337
3.108,16.198561725928883
3.109,16.200559328805433
3.11,16.20255693168198
3.111,16.20455453455853
3.112,16.206552137435075
3.113,16.208549740311625
3.114,16.21054734318817
3.115,16.21254494606472
3.116,16.214542548941267
3.117,16.216540151817817
3.118,16.218537754694363
3.119,16.220535357570913
3.12,16.222532960447463
3.121,16.22453056332401
3.122,16.22652816620056
3.123,16.228525769077105
3.124,16.230523371953655
3.125,16.2325209748302
3.126,16.23451857770675
3.1270000000000002,16.236516180583298
3.128,16.238513783459847
3.129,16.240511386336394
3.13,16.242508989212944
3.1310000000000002,16.24450659208949
3.132,16.24650419496604
3.133,16.248501797842586
3.134,16.250499400719136
3.1350000000000002,16.252497003595682
3.136,16.25449460647223
3.137,16.25649220934878
3.138,16.258489812225328
3.1390000000000002,16.260487415101878
3.14,16.262485017978424
3.141,16.264482620854974
3.142,16.26648022373152
3.1430000000000002,16.26847782660807
3.144,16.270475429484616
3.145,16.272473032361166
3.146,16.274470635237712
3.1470000000000002,16.276468238114262
3.148,16.27846584099081
3.149,16.280463443867358
3.15,16.282461046743904
3.1510000000000002,16.284458649620454
3.152,16.286456252497
3.153,16.28845385537355
3.154,16.290451458250097
3.1550000000000002,16.292449061126646
3.156,16.294446664003196
3.157,16.296444266879742
3.158,16.298441869756292
3.1590000000000003,16.30043947263284
3.16,16.30243707550939
3.161,16.304434678385935
3.162,16.306432281262484
3.1630000000000003,16.30842988413903
3.164,16.31042748701558
3.165,16.312425089892127
3.166,16.314422692768677
3.1670000000000003,16.316420295645223
3.168,16.318417898521773
3.169,16.32041550139832
3.17,16.32241310427487
3.1710000000000003,16.324410707151415
3.172,16.326408310027965
3.173,16.328405912904515
3.174,16.33040351578106
3.1750000000000003,16.33240111865761
3.176,16.334398721534157
3.177,16.336396324410707
3.178,16.338393927287253
3.1790000000000003,16.340391530163803
3.18,16.34238913304035
3.181,16.3443867359169
3.182,16.346384338793445
3.1830000000000003,16.348381941669995
3.184,16.35037954454654
3.185,16.35237714742309
3.186,16.354374750299637
3.1870000000000003,16.356372353176187
3.188,16.358369956052734
3.189,16.360367558929283
3.19,16.36236516180583
3.1910000000000003,16.36436276468238
3.192,16.36636036755893
3.193,16.368357970435476
3.194,16.370355573312025
3.1950000000000003,16.37235317618857
3.196,16.37435077906512
3.197,16.376348381941668
3.198,16.378345984818218
3.1990000000000003,16.380343587694764
3.2,16.382341190571314
3.201,16.38433879344786
3.202,16.38633639632441
3.203,16.388333999200956
3.204,16.390331602077506
3.205,16.392329204954052
3.206,16.394326807830602
3.207,16.396324410707148
3.208,16.398322013583698
3.209,16.400319616460244
3.21,16.402317219336794
3.211,16.404314822213344
3.212,16.40631242508989
3.213,16.40831002796644
3.214,16.410307630842986
3.215,16.412305233719536
3.216,16.414302836596082
3.217,16.416300439472632
3.218,16.41829804234918
3.219,16.42029564522573
3.22,16.422293248102275
3.221,16.424290850978824
3.222,16.42628845385537
3.223,16.42828605673192
3.224,16.430283659608467
3.225,16.432281262485017
3.226,16.434278865361563
3.227,16.436276468238113
3.228,16.438274071114662
3.229,16.44027167399121
3.23,16.44226927686776
3.231,16.444266879744305
3.232,16.446264482620855
3.233,16.4482620854974
3.234,16.45025968837395
3.235,16.452257291250497
3.236,16.454254894127047
3.237,16.456252497003593
3.238,16.458250099880143
3.239,16.46024770275669
3.24,16.46224530563324
3.241,16.464242908509785
3.242,16.466240511386335
3.243,16.46823811426288
3.244,16.47023571713943
3.245,16.472233320015977
3.246,16.474230922892527
3.247,16.476228525769077
3.248,16.478226128645623
3.249,16.480223731522173
3.25,16.48222133439872
3.251,16.48421893727527
3.2520000000000002,16.486216540151815
3.253,16.488214143028365
3.254,16.49021174590491
3.255,16.49220934878146
3.2560000000000002,16.494206951658008
3.257,16.496204554534557
3.258,16.498202157411104
3.259,16.500199760287654
3.2600000000000002,16.5021973631642
3.261,16.50419496604075
3.262,16.506192568917296
3.263,16.508190171793846
3.2640000000000002,16.510187774670396
3.265,16.512185377546942
3.266,16.51418298042349
3.267,16.516180583300038
3.2680000000000002,16.518178186176588
3.269,16.520175789053134
3.27,16.522173391929684
3.271,16.52417099480623
3.2720000000000002,16.52616859768278
3.273,16.528166200559326
3.274,16.530163803435876
3.275,16.532161406312422
3.2760000000000002,16.534159009188972
3.277,16.53615661206552
3.278,16.538154214942068
3.279,16.540151817818614
3.2800000000000002,16.542149420695164
3.281,16.54414702357171
3.282,16.54614462644826
3.283,16.54814222932481
3.2840000000000003,16.550139832201356
3.285,16.552137435077906
3.286,16.554135037954453
3.287,16.556132640831002
3.2880000000000003,16.55813024370755
3.289,16.5601278465841
3.29,16.562125449460645
3.291,16.564123052337195
3.2920000000000003,16.56612065521374
3.293,16.56811825809029
3.294,16.570115860966837
3.295,16.572113463843387
3.2960000000000003,16.574111066719933
3.297,16.576108669596483
3.298,16.57810627247303
3.299,16.58010387534958
3.3000000000000003,16.58210147822613
3.301,16.584099081102675
3.302,16.586096683979225
3.303,16.58809428685577
3.3040000000000003,16.59009188973232
3.305,16.592089492608867
3.306,16.594087095485417
3.307,16.596084698361963
3.3080000000000003,16.598082301238513
3.309,16.60007990411506
3.31,16.60207750699161
3.311,16.604075109868155
3.3120000000000003,16.606072712744705
3.313,16.60807031562125
3.314,16.6100679184978
3.315,16.612065521374348
3.3160000000000003,16.614063124250897
3.317,16.616060727127444
3.318,16.618058330003993
3.319,16.620055932880543
3.3200000000000003,16.62205353575709
3.321,16.62405113863364
3.322,16.626048741510186
3.323,16.628046344386735
3.3240000000000003,16.63004394726328
3.325,16.63204155013983
3.326,16.634039153016378
3.327,16.636036755892928
3.3280000000000003,16.638034358769474
3.329,16.640031961646024
3.33,16.64202956452257
3.331,16.64402716739912
3.332,16.646024770275666
3.333,16.648022373152216
3.334,16.650019976028762
3.335,16.652017578905312
3.336,16.654015181781862
3.337,16.656012784658408
3.338,16.658010387534958
3.339,16.660007990411504
3.34,16.662005593288054
3.341,16.6640031961646
3.342,16.66600079904115
3.343,16.667998401917696
3.344,16.669996004794246
3.345,16.671993607670792
3.346,16.673991210547342
3.347,16.67598881342389
3.348,16.67798641630044
3.349,16.679984019176985
3.35,16.681981622053534
3.351,16.68397922493008
3.352,16.68597682780663
3.353,16.687974430683177
3.354,16.689972033559727
3.355,16.691969636436276
3.356,16.693967239312823
3.357,16.695964842189372
3.358,16.69796244506592
3.359,16.69996004794247
3.36,16.701957650819015
3.361,16.703955253695565
3.362,16.70595285657211
3.363,16.70795045944866
3.364,16.709948062325207
3.365,16.711945665201757
3.366,16.713943268078303
3.367,16.715940870954853
3.368,16.7179384738314
3.369,16.71993607670795
3.37,16.721933679584495
3.371,16.723931282461045
3.372,16.725928885337595
3.373,16.72792648821414
3.374,16.72992409109069
3.375,16.731921693967237
3.376,16.733919296843787
3.3770000000000002,16.735916899720333
3.378,16.737914502596883
3.379,16.73991210547343
3.38,16.74190970834998
3.3810000000000002,16.743907311226526
3.382,16.745904914103075
3.383,16.74790251697962
3.384,16.74990011985617
3.3850000000000002,16.751897722732718
3.386,16.753895325609268
3.387,16.755892928485814
3.388,16.757890531362364
3.3890000000000002,16.75988813423891
3.39,16.76188573711546
3.391,16.76388333999201
3.392,16.765880942868556
3.3930000000000002,16.767878545745106
3.394,16.769876148621652
3.395,16.7718737514982
3.396,16.773871354374748
3.3970000000000002,16.775868957251298
3.398,16.777866560127844
3.399,16.779864163004394
3.4,16.78186176588094
3.4010000000000002,16.78385936875749
3.402,16.785856971634036
3.403,16.787854574510586
3.404,16.789852177387132
3.4050000000000002,16.791849780263682
3.406,16.79384738314023
3.407,16.795844986016778
3.408,16.797842588893328
3.4090000000000003,16.799840191769874
3.41,16.801837794646424
3.411,16.80383539752297
3.412,16.80583300039952
3.4130000000000003,16.807830603276066
3.414,16.809828206152616
3.415,16.811825809029163
3.416,16.813823411905712
3.4170000000000003,16.81582101478226
3.418,16.81781861765881
3.419,16.819816220535355
3.42,16.821813823411905
3.4210000000000003,16.82381142628845
3.422,16.825809029165
3.423,16.827806632041547
3.424,16.829804234918097
3.4250000000000003,16.831801837794643
3.426,16.833799440671193
3.427,16.835797043547743
3.428,16.83779464642429
3.4290000000000003,16.83979224930084
3.43,16.841789852177385
3.431,16.843787455053935
3.432,16.84578505793048
3.4330000000000003,16.84778266080703
3.434,16.849780263683577
3.435,16.851777866560127
3.436,16.853775469436673
3.4370000000000003,16.855773072313223
3.438,16.85777067518977
3.439,16.85976827806632
3.44,16.861765880942865
3.4410000000000003,16.863763483819415
3.442,16.86576108669596
3.443,16.86775868957251
3.444,16.86975629244906
3.4450000000000003,16.871753895325607
3.446,16.873751498202157
3.447,16.875749101078704
3.448,16.877746703955253
3.4490000000000003,16.8797443068318
3.45,16.88174190970835
3.451,16.883739512584896
3.452,16.885737115461446
3.4530000000000003,16.887734718337992
3.454,16.88973232121454
3.455,16.891729924091088
3.456,16.893727526967638
3.457,16.895725129844184
3.458,16.897722732720734
3.459,16.89972033559728
3.46,16.90171793847383
3.461,16.903715541350376
3.462,16.905713144226926
3.463,16.907710747103476
3.464,16.909708349980022
3.465,16.911705952856572
3.466,16.913703555733118
3.467,16.915701158609668
3.468,16.917698761486214
3.469,16.919696364362764
3.47,16.92169396723931
3.471,16.92369157011586
3.472,16.925689172992406
3.473,16.927686775868956
3.474,16.929684378745502
3.475,16.931681981622052
3.476,16.9336795844986
3.477,16.93567718737515
3.478,16.937674790251695
3.479,16.939672393128244
3.48,16.941669996004794
3.481,16.94366759888134
3.482,16.94566520175789
3.483,16.947662804634437
3.484,16.949660407510986
3.485,16.951658010387533
3.486,16.953655613264083
3.487,16.95565321614063
3.488,16.95765081901718
3.489,16.959648421893725
3.49,16.961646024770275
3.491,16.96364362764682
3.492,16.96564123052337
3.493,16.967638833399917
3.494,16.969636436276467
3.495,16.971634039153013
3.496,16.973631642029563
3.497,16.97562924490611
3.498,16.97762684778266
3.499,16.97962445065921
3.5,16.981622053535755
3.501,16.983619656412305
3.5020000000000002,16.98561725928885
3.503,16.9876148621654
3.504,16.989612465041947
3.505,16.991610067918497
3.5060000000000002,16.993607670795043
3.507,16.995605273671593
3.508,16.99760287654814
3.509,16.99960047942469
3.5100000000000002,17.001598082301236
3.511,17.003595685177785
3.512,17.00559328805433
3.513,17.00759089093088
3.5140000000000002,17.009588493807428
3.515,17.011586096683978
3.516,17.013583699560527
3.517,17.015581302437074
3.5180000000000002,17.017578905313623
3.519,17.01957650819017
3.52,17.02157411106672
3.521,17.023571713943266
3.5220000000000002,17.025569316819816
3.523,17.027566919696362
3.524,17.02956452257291
3.525,17.031562125449458
3.5260000000000002,17.033559728326008
3.527,17.035557331202554
3.528,17.037554934079104
3.529,17.03955253695565
3.5300000000000002,17.0415501398322
3.531,17.043547742708746
3.532,17.045545345585296
3.533,17.047542948461842
3.5340000000000003,17.049540551338392
3.535,17.051538154214942
3.536,17.05353575709149
3.537,17.055533359968038
3.5380000000000003,17.057530962844584
3.539,17.059528565721134
3.54,17.06152616859768
3.541,17.06352377147423
3.5420000000000003,17.065521374350777
3.543,17.067518977227326
3.544,17.069516580103873
3.545,17.071514182980422
3.5460000000000003,17.07351178585697
3.547,17.07550938873352
3.548,17.077506991610065
3.549,17.079504594486615
3.5500000000000003,17.08150219736316
3.551,17.08349980023971
3.552,17.08549740311626
3.553,17.087495005992807
3.5540000000000003,17.089492608869357
3.555,17.091490211745903
3.556,17.093487814622453
3.557,17.095485417499
3.5580000000000003,17.09748302037555
3.559,17.099480623252095
3.56,17.101478226128645
3.561,17.10347582900519
3.5620000000000003,17.10547343188174
3.563,17.107471034758287
3.564,17.109468637634837
3.565,17.111466240511383
3.5660000000000003,17.113463843387933
3.567,17.11546144626448
3.568,17.11745904914103
3.569,17.119456652017575
3.5700000000000003,17.121454254894125
3.571,17.123451857770675
3.572,17.12544946064722
3.573,17.12744706352377
3.5740000000000003,17.129444666400317
3.575,17.131442269276867
3.576,17.133439872153414
3.577,17.135437475029963
3.5780000000000003,17.13743507790651
3.579,17.13943268078306
3.58,17.141430283659606
3.581,17.143427886536156
3.5820000000000003,17.145425489412702
3.583,17.14742309228925
3.584,17.149420695165798
3.585,17.151418298042348
3.586,17.153415900918894
3.587,17.155413503795444
3.588,17.157411106671994
3.589,17.15940870954854
3.59,17.16140631242509
3.591,17.163403915301636
3.592,17.165401518178186
3.593,17.167399121054732
3.594,17.169396723931282
3.595,17.171394326807828
3.596,17.173391929684378
3.597,17.175389532560924
3.598,17.177387135437474
3.599,17.17938473831402
3.6,17.18138234119057
3.601,17.183379944067116
3.602,17.185377546943666
3.603,17.187375149820213
3.604,17.189372752696762
3.605,17.19137035557331
3.606,17.19336795844986
3.607,17.19536556132641
3.608,17.197363164202955
3.609,17.199360767079504
3.61,17.20135836995605
3.611,17.2033559728326
3.612,17.205353575709147
3.613,17.207351178585697
3.614,17.209348781462243
3.615,17.211346384338793
3.616,17.21334398721534
3.617,17.21534159009189
3.618,17.217339192968435
3.619,17.219336795844985
3.62,17.22133439872153
3.621,17.22333200159808
3.622,17.225329604474627
3.623,17.227327207351177
3.624,17.229324810227723
3.625,17.231322413104273
3.626,17.233320015980823
3.6270000000000002,17.23531761885737
3.628,17.23731522173392
3.629,17.239312824610465
3.63,17.241310427487015
3.6310000000000002,17.24330803036356
3.632,17.24530563324011
3.633,17.247303236116657
3.634,17.249300838993207
3.6350000000000002,17.251298441869753
3.636,17.253296044746303
3.637,17.25529364762285
3.638,17.2572912504994
3.6390000000000002,17.259288853375946
3.64,17.261286456252495
3.641,17.26328405912904
3.642,17.26528166200559
3.6430000000000002,17.26727926488214
3.644,17.269276867758688
3.645,17.271274470635237
3.646,17.273272073511784
3.6470000000000002,17.275269676388334
3.648,17.27726727926488
3.649,17.27926488214143
3.65,17.281262485017976
3.6510000000000002,17.283260087894526
3.652,17.285257690771072
3.653,17.287255293647622
3.654,17.289252896524168
3.6550000000000002,17.291250499400718
3.656,17.293248102277264
3.657,17.295245705153814
3.658,17.29724330803036
3.6590000000000003,17.29924091090691
3.66,17.301238513783456
3.661,17.303236116660006
3.662,17.305233719536556
3.6630000000000003,17.307231322413102
3.664,17.309228925289652
3.665,17.3112265281662
3.666,17.313224131042748
3.6670000000000003,17.315221733919294
3.668,17.317219336795844
3.669,17.31921693967239
3.67,17.32121454254894
3.6710000000000003,17.323212145425487
3.672,17.325209748302036
3.673,17.327207351178583
3.674,17.329204954055133
3.6750000000000003,17.33120255693168
3.676,17.33320015980823
3.677,17.335197762684775
3.678,17.337195365561325
3.6790000000000003,17.339192968437874
3.68,17.34119057131442
3.681,17.34318817419097
3.682,17.345185777067517
3.6830000000000003,17.347183379944067
3.684,17.349180982820613
3.685,17.351178585697163
3.686,17.35317618857371
3.6870000000000003,17.35517379145026
3.688,17.357171394326805
3.689,17.359168997203355
3.69,17.3611666000799
3.6910000000000003,17.36316420295645
3.692,17.365161805832997
3.693,17.367159408709547
3.694,17.369157011586093
3.6950000000000003,17.371154614462643
3.696,17.37315221733919
3.697,17.37514982021574
3.698,17.37714742309229
3.6990000000000003,17.379145025968835
3.7,17.381142628845385
3.701,17.38314023172193
3.702,17.38513783459848
3.7030000000000003,17.387135437475028
3.704,17.389133040351577
3.705,17.391130643228124
3.706,17.393128246104673
3.7070000000000003,17.39512584898122
3.708,17.39712345185777
3.709,17.399121054734316
3.71,17.401118657610866
3.7110000000000003,17.403116260487412
3.712,17.40511386336396
3.713,17.407111466240508
3.714,17.409109069117058
3.715,17.411106671993608
3.716,17.413104274870154
3.717,17.415101877746704
3.718,17.41709948062325
3.719,17.4190970834998
3.72,17.421094686376346
3.721,17.423092289252896
3.722,17.425089892129442
3.723,17.427087495005992
3.724,17.42908509788254
3.725,17.431082700759088
3.726,17.433080303635634
3.727,17.435077906512184
3.728,17.43707550938873
3.729,17.43907311226528
3.73,17.441070715141826
3.731,17.443068318018376
3.732,17.445065920894923
3.733,17.447063523771472
3.734,17.449061126648022
3.735,17.45105872952457
3.736,17.45305633240112
3.737,17.455053935277665
3.738,17.457051538154214
3.739,17.45904914103076
3.74,17.46104674390731
3.741,17.463044346783857
3.742,17.465041949660407
3.743,17.467039552536953
3.744,17.469037155413503
3.745,17.47103475829005
3.746,17.4730323611666
3.747,17.475029964043145
3.748,17.477027566919695
3.749,17.47902516979624
3.75,17.48102277267279
3.751,17.48302037554934
3.7520000000000002,17.485017978425887
3.753,17.487015581302437
3.754,17.489013184178983
3.755,17.491010787055533
3.7560000000000002,17.49300838993208
3.757,17.49500599280863
3.758,17.497003595685175
3.759,17.499001198561725
3.7600000000000002,17.50099880143827
3.761,17.50299640431482
3.762,17.504994007191367
3.763,17.506991610067917
3.7640000000000002,17.508989212944464
3.765,17.510986815821013
3.766,17.51298441869756
3.767,17.51498202157411
3.7680000000000002,17.516979624450656
3.769,17.518977227327206
3.77,17.520974830203755
3.771,17.5229724330803
3.7720000000000002,17.52497003595685
3.773,17.526967638833398
3.774,17.528965241709948
3.775,17.530962844586494
3.7760000000000002,17.532960447463044
3.777,17.53495805033959
3.778,17.53695565321614
3.779,17.538953256092686
3.7800000000000002,17.540950858969236
3.781,17.542948461845782
3.782,17.544946064722332
3.783,17.546943667598878
3.7840000000000003,17.548941270475428
3.785,17.550938873351974
3.786,17.552936476228524
3.787,17.554934079105074
3.7880000000000003,17.55693168198162
3.789,17.55892928485817
3.79,17.560926887734716
3.791,17.562924490611266
3.7920000000000003,17.564922093487812
3.793,17.566919696364362
3.794,17.56891729924091
3.795,17.570914902117458
3.7960000000000003,17.572912504994004
3.797,17.574910107870554
3.798,17.5769077107471
3.799,17.57890531362365
3.8000000000000003,17.580902916500197
3.801,17.582900519376746
3.802,17.584898122253293
3.803,17.586895725129843
3.8040000000000003,17.58889332800639
3.805,17.59089093088294
3.806,17.59288853375949
3.807,17.594886136636035
3.8080000000000003,17.596883739512585
3.809,17.59888134238913
3.81,17.60087894526568
3.811,17.602876548142227
3.8120000000000003,17.604874151018777
3.813,17.606871753895323
3.814,17.608869356771873
3.815,17.61086695964842
3.8160000000000003,17.61286456252497
3.817,17.614862165401515
3.818,17.616859768278065
3.819,17.61885737115461
3.8200000000000003,17.62085497403116
3.821,17.622852576907707
3.822,17.624850179784257
3.823,17.626847782660807
3.8240000000000003,17.628845385537353
3.825,17.630842988413903
3.826,17.63284059129045
3.827,17.634838194167
3.8280000000000003,17.636835797043545
3.829,17.638833399920095
3.83,17.64083100279664
3.831,17.64282860567319
3.8320000000000003,17.644826208549738
3.833,17.646823811426287
3.834,17.648821414302834
3.835,17.650819017179384
3.8360000000000003,17.65281662005593
3.837,17.65481422293248
3.838,17.656811825809026
3.839,17.658809428685576
3.84,17.660807031562122
3.841,17.66280463443867
3.842,17.66480223731522
3.843,17.666799840191768
3.844,17.668797443068318
3.845,17.670795045944864
3.846,17.672792648821414
3.847,17.67479025169796
3.848,17.67678785457451
3.849,17.678785457451056
3.85,17.680783060327606
3.851,17.682780663204152
3.852,17.684778266080702
3.853,17.68677586895725
3.854,17.688773471833798
3.855,17.690771074710344
3.856,17.692768677586894
3.857,17.69476628046344
3.858,17.69676388333999
3.859,17.69876148621654
3.86,17.700759089093086
3.861,17.702756691969636
3.862,17.704754294846182
3.863,17.706751897722732
3.864,17.70874950059928
3.865,17.71074710347583
3.866,17.712744706352375
3.867,17.714742309228924
3.868,17.71673991210547
3.869,17.71873751498202
3.87,17.720735117858567
3.871,17.722732720735117
3.872,17.724730323611663
3.873,17.726727926488213
3.874,17.72872552936476
3.875,17.73072313224131
3.876,17.732720735117855
3.8770000000000002,17.734718337994405
3.878,17.736715940870955
3.879,17.7387135437475
3.88,17.74071114662405
3.8810000000000002,17.742708749500597
3.882,17.744706352377147
3.883,17.746703955253693
3.884,17.748701558130243
3.8850000000000002,17.75069916100679
3.886,17.75269676388334
3.887,17.754694366759885
3.888,17.756691969636435
3.8890000000000002,17.75868957251298
3.89,17.76068717538953
3.891,17.762684778266078
3.892,17.764682381142627
3.8930000000000002,17.766679984019174
3.894,17.768677586895723
3.895,17.770675189772273
3.896,17.77267279264882
3.8970000000000002,17.77467039552537
3.898,17.776667998401916
3.899,17.778665601278465
3.9,17.78066320415501
3.9010000000000002,17.78266080703156
3.902,17.784658409908108
3.903,17.786656012784658
3.904,17.788653615661204
3.9050000000000002,17.790651218537754
3.906,17.7926488214143
3.907,17.79464642429085
3.908,17.796644027167396
3.9090000000000003,17.798641630043946
3.91,17.800639232920492
3.911,17.802636835797042
3.912,17.804634438673588
3.9130000000000003,17.806632041550138
3.914,17.808629644426688
3.915,17.810627247303234
3.916,17.812624850179784
3.9170000000000003,17.81462245305633
3.918,17.81662005593288
3.919,17.818617658809426
3.92,17.820615261685976
3.9210000000000003,17.822612864562522
3.922,17.824610467439072
3.923,17.82660807031562
3.924,17.82860567319217
3.9250000000000003,17.830603276068715
3.926,17.832600878945264
3.927,17.83459848182181
3.928,17.83659608469836
3.9290000000000003,17.838593687574907
3.93,17.840591290451457
3.931,17.842588893328006
3.932,17.844586496204553
3.9330000000000003,17.846584099081102
3.934,17.84858170195765
3.935,17.8505793048342
3.936,17.852576907710745
3.9370000000000003,17.854574510587295
3.938,17.85657211346384
3.939,17.85856971634039
3.94,17.860567319216937
3.9410000000000003,17.862564922093487
3.942,17.864562524970033
3.943,17.866560127846583
3.944,17.86855773072313
3.9450000000000003,17.87055533359968
3.946,17.872552936476225
3.947,17.874550539352775
3.948,17.87654814222932
3.9490000000000003,17.87854574510587
3.95,17.88054334798242
3.951,17.882540950858967
3.952,17.884538553735517
3.9530000000000003,17.886536156612063
3.954,17.888533759488613
3.955,17.89053136236516
3.956,17.89252896524171
3.9570000000000003,17.894526568118255
3.958,17.896524170994805
3.959,17.89852177387135
3.96,17.9005193767479
3.9610000000000003,17.902516979624448
3.962,17.904514582500997
3.963,17.906512185377544
3.964,17.908509788254094
3.9650000000000003,17.91050739113064
3.966,17.91250499400719
3.967,17.91450259688374
3.968,17.916500199760286
3.969,17.918497802636836
3.97,17.920495405513382
3.971,17.92249300838993
3.972,17.924490611266478
3.973,17.926488214143028
3.974,17.928485817019574
3.975,17.930483419896124
3.976,17.93248102277267
3.977,17.93447862564922
3.978,17.936476228525766
3.979,17.938473831402316
3.98,17.940471434278862
3.981,17.942469037155412
3.982,17.94446664003196
3.983,17.946464242908508
3.984,17.948461845785054
3.985,17.950459448661604
3.986,17.952457051538154
3.987,17.9544546544147
3.988,17.95645225729125
3.989,17.958449860167796
3.99,17.960447463044346
3.991,17.962445065920893
3.992,17.964442668797442
3.993,17.96644027167399
3.994,17.96843787455054
3.995,17.970435477427085
3.996,17.972433080303635
3.997,17.97443068318018
3.998,17.97642828605673
3.999,17.978425888933277
4.0,17.980423491809827
4.001,17.982421094686373
4.002,17.984418697562923
4.003,17.986416300439473
4.0040000000000004,17.98841390331602
4.005,17.99041150619257
4.006,17.992409109069115
4.007,17.994406711945665
4.008,17.99640431482221
4.009,17.99840191769876
4.01,18.000399520575307
4.011,18.002397123451857
4.0120000000000005,18.004394726328403
4.013,18.006392329204953
4.014,18.0083899320815
4.015,18.01038753495805
4.016,18.012385137834595
4.017,18.014382740711145
4.018,18.01638034358769
4.019,18.01837794646424
4.0200000000000005,18.020375549340788
4.021,18.022373152217337
4.022,18.024370755093887
4.023,18.02636835797044
4.024,18.028365960846983
4.025,18.03036356372353
4.026,18.03236116660008
4.027,18.034358769476626
4.0280000000000005,18.03635637235317
4.029,18.03835397522972
4.03,18.04035157810627
4.031,18.04234918098281
4.032,18.044346783859368
4.033,18.04634438673592
4.034,18.048341989612464
4.035,18.05033959248901
4.0360000000000005,18.05233719536556
4.037,18.054334798242103
4.038,18.056332401118656
4.039,18.0583300039952
4.04,18.060327606871752
4.041,18.062325209748305
4.042,18.064322812624848
4.043,18.0663204155014
4.0440000000000005,18.068318018377944
4.045,18.07031562125449
4.046,18.07231322413104
4.047,18.07431082700759
4.048,18.076308429884136
4.049,18.07830603276069
4.05,18.080303635637232
4.051,18.082301238513782
4.0520000000000005,18.08429884139033
4.053,18.08629644426688
4.054,18.088294047143425
4.055,18.09029165001997
4.056,18.09228925289652
4.057,18.09428685577307
4.058,18.09628445864962
4.059,18.098282061526167
4.0600000000000005,18.10027966440272
4.061,18.102277267279263
4.062,18.10427487015581
4.063,18.10627247303236
4.064,18.10827007590891
4.065,18.11026767878545
4.066,18.112265281662005
4.067,18.11426288453855
4.0680000000000005,18.1162604874151
4.069,18.118258090291647
4.07,18.1202556931682
4.071,18.122253296044743
4.072,18.124250898921293
4.073,18.12624850179784
4.074,18.12824610467439
4.075,18.13024370755093
4.0760000000000005,18.132241310427485
4.077,18.134238913304035
4.078,18.13623651618058
4.079,18.13823411905713
4.08,18.14023172193368
4.081,18.142229324810227
4.082,18.144226927686773
4.083,18.146224530563323
4.0840000000000005,18.14822213343987
4.085,18.15021973631642
4.086,18.15221733919297
4.087,18.154214942069515
4.088,18.15621254494606
4.089,18.15821014782261
4.09,18.16020775069916
4.091,18.162205353575708
4.0920000000000005,18.16420295645225
4.093,18.166200559328804
4.094,18.16819816220536
4.095,18.1701957650819
4.096,18.17219336795845
4.097,18.174190970835
4.098,18.176188573711546
4.099,18.17818617658809
4.1,18.18018377946464
4.101,18.182181382341188
4.102,18.18417898521773
4.103,18.186176588094284
4.104,18.18817419097084
4.105,18.19017179384738
4.106,18.19216939672393
4.107,18.19416699960048
4.108,18.196164602477022
4.109,18.19816220535357
4.11,18.20015980823012
4.111,18.20215741110667
4.112,18.20415501398322
4.113,18.206152616859768
4.114,18.208150219736314
4.115,18.210147822612864
4.116,18.21214542548941
4.117,18.21414302836596
4.118,18.216140631242503
4.119,18.218138234119056
4.12,18.220135836995603
4.121,18.222133439872152
4.122,18.2241310427487
4.123,18.22612864562525
4.124,18.228126248501795
4.125,18.230123851378345
4.126,18.23212145425489
4.127,18.23411905713144
4.128,18.236116660007987
4.1290000000000004,18.238114262884537
4.13,18.240111865761087
4.131,18.24210946863764
4.132,18.244107071514183
4.133,18.24610467439073
4.134,18.24810227726728
4.135,18.250099880143825
4.136,18.25209748302037
4.1370000000000005,18.25409508589692
4.138,18.25609268877347
4.139,18.258090291650017
4.14,18.260087894526567
4.141,18.26208549740312
4.142,18.264083100279663
4.143,18.26608070315621
4.144,18.26807830603276
4.1450000000000005,18.270075908909305
4.146,18.27207351178585
4.147,18.2740711146624
4.148,18.27606871753895
4.149,18.2780663204155
4.15,18.280063923292047
4.151,18.2820615261686
4.152,18.284059129045144
4.1530000000000005,18.286056731921693
4.154,18.28805433479824
4.155,18.29005193767479
4.156,18.292049540551336
4.157,18.29404714342789
4.158,18.296044746304432
4.159,18.29804234918098
4.16,18.300039952057528
4.1610000000000005,18.30203755493408
4.162,18.304035157810624
4.163,18.30603276068717
4.164,18.30803036356372
4.165,18.31002796644027
4.166,18.31202556931682
4.167,18.31402317219337
4.168,18.31602077506992
4.1690000000000005,18.318018377946466
4.17,18.32001598082301
4.171,18.32201358369956
4.172,18.324011186576108
4.173,18.32600878945265
4.174,18.328006392329204
4.175,18.33000399520575
4.176,18.3320015980823
4.1770000000000005,18.333999200958846
4.178,18.3359968038354
4.179,18.337994406711942
4.18,18.33999200958849
4.181,18.34198961246504
4.182,18.34398721534159
4.183,18.34598481821813
4.184,18.347982421094684
4.1850000000000005,18.349980023971234
4.186,18.35197762684778
4.187,18.35397522972433
4.188,18.35597283260088
4.189,18.357970435477423
4.19,18.359968038353973
4.191,18.361965641230523
4.192,18.36396324410707
4.1930000000000005,18.36596084698362
4.194,18.367958449860165
4.195,18.369956052736715
4.196,18.37195365561326
4.197,18.37395125848981
4.198,18.37594886136636
4.199,18.377946464242907
4.2,18.379944067119453
4.2010000000000005,18.381941669996003
4.202,18.38393927287256
4.203,18.3859368757491
4.204,18.38793447862565
4.205,18.389932081502195
4.206,18.391929684378745
4.207,18.39392728725529
4.208,18.39592489013184
4.2090000000000005,18.397922493008387
4.21,18.399920095884937
4.211,18.401917698761483
4.212,18.40391530163804
4.213,18.40591290451458
4.214,18.40791050739113
4.215,18.40990811026768
4.216,18.411905713144225
4.2170000000000005,18.41390331602077
4.218,18.41590091889732
4.219,18.417898521773868
4.22,18.419896124650418
4.221,18.421893727526967
4.222,18.42389133040352
4.223,18.425888933280063
4.224,18.42788653615661
4.225,18.42988413903316
4.226,18.431881741909702
4.227,18.433879344786256
4.228,18.4358769476628
4.229,18.43787455053935
4.23,18.43987215341589
4.231,18.441869756292448
4.232,18.443867359169
4.233,18.445864962045544
4.234,18.44786256492209
4.235,18.44986016779864
4.236,18.451857770675183
4.237,18.453855373551736
4.238,18.45585297642829
4.239,18.457850579304832
4.24,18.459848182181386
4.241,18.46184578505793
4.242,18.46384338793448
4.243,18.465840990811024
4.244,18.46783859368757
4.245,18.46983619656412
4.246,18.47183379944067
4.247,18.473831402317217
4.248,18.475829005193766
4.249,18.47782660807032
4.25,18.479824210946862
4.251,18.48182181382341
4.252,18.48381941669996
4.253,18.485817019576505
4.2540000000000004,18.48781462245305
4.255,18.4898122253296
4.256,18.49180982820615
4.257,18.4938074310827
4.258,18.495805033959247
4.259,18.4978026368358
4.26,18.499800239712343
4.261,18.501797842588893
4.2620000000000005,18.50379544546544
4.263,18.50579304834199
4.264,18.50779065121853
4.265,18.509788254095085
4.266,18.51178585697163
4.267,18.51378345984818
4.268,18.515781062724727
4.269,18.51777866560128
4.2700000000000005,18.519776268477823
4.271,18.521773871354373
4.272,18.52377147423092
4.273,18.52576907710747
4.274,18.52776667998402
4.275,18.529764282860565
4.276,18.531761885737115
4.277,18.53375948861366
4.2780000000000005,18.53575709149021
4.279,18.53775469436676
4.28,18.539752297243307
4.281,18.541749900119854
4.282,18.543747502996403
4.283,18.54574510587295
4.284,18.5477427087495
4.285,18.54974031162605
4.2860000000000005,18.5517379145026
4.287,18.553735517379145
4.288,18.55573312025569
4.289,18.55773072313224
4.29,18.559728326008788
4.291,18.56172592888533
4.292,18.563723531761884
4.293,18.56572113463844
4.2940000000000005,18.56771873751498
4.295,18.56971634039153
4.296,18.57171394326808
4.297,18.573711546144622
4.298,18.57570914902117
4.299,18.57770675189772
4.3,18.579704354774268
4.301,18.58170195765081
4.3020000000000005,18.583699560527364
4.303,18.58569716340392
4.304,18.58769476628046
4.305,18.58969236915701
4.306,18.59168997203356
4.307,18.593687574910103
4.308,18.595685177786653
4.309,18.5976827806632
4.3100000000000005,18.599680383539752
4.311,18.6016779864163
4.312,18.60367558929285
4.313,18.605673192169395
4.314,18.607670795045944
4.315,18.60966839792249
4.316,18.61166600079904
4.317,18.613663603675587
4.3180000000000005,18.615661206552137
4.319,18.617658809428683
4.32,18.61965641230524
4.321,18.62165401518178
4.322,18.62365161805833
4.323,18.625649220934875
4.324,18.627646823811425
4.325,18.62964442668797
4.3260000000000005,18.63164202956452
4.327,18.633639632441067
4.328,18.635637235317617
4.329,18.637634838194167
4.33,18.63963244107072
4.331,18.641630043947263
4.332,18.64362764682381
4.333,18.64562524970036
4.3340000000000005,18.647622852576905
4.335,18.64962045545345
4.336,18.65161805833
4.337,18.65361566120655
4.338,18.655613264083097
4.339,18.657610866959647
4.34,18.6596084698362
4.341,18.661606072712743
4.3420000000000005,18.66360367558929
4.343,18.66560127846584
4.344,18.667598881342386
4.345,18.66959648421893
4.346,18.671594087095485
4.347,18.67359168997203
4.348,18.67558929284858
4.349,18.677586895725128
4.3500000000000005,18.67958449860168
4.351,18.681582101478224
4.352,18.683579704354774
4.353,18.68557730723132
4.354,18.68757491010787
4.355,18.689572512984416
4.356,18.69157011586097
4.357,18.693567718737512
4.358,18.695565321614065
4.359,18.697562924490608
4.36,18.69956052736716
4.361,18.701558130243704
4.362,18.70355573312025
4.363,18.7055533359968
4.364,18.70755093887335
4.365,18.7095485417499
4.366,18.71154614462645
4.367,18.713543747503
4.368,18.715541350379542
4.369,18.71753895325609
4.37,18.71953655613264
4.371,18.721534159009188
4.372,18.72353176188573
4.373,18.725529364762284
4.374,18.72752696763883
4.375,18.72952457051538
4.376,18.731522173391927
4.377,18.73351977626848
4.378,18.735517379145023
4.3790000000000004,18.737514982021573
4.38,18.73951258489812
4.381,18.74151018777467
4.382,18.74350779065122
4.383,18.745505393527765
4.384,18.747502996404315
4.385,18.74950059928086
4.386,18.75149820215741
4.3870000000000005,18.75349580503396
4.388,18.755493407910507
4.389,18.757491010787053
4.39,18.759488613663603
4.391,18.76148621654015
4.392,18.7634838194167
4.393,18.765481422293245
4.394,18.767479025169795
4.3950000000000005,18.76947662804634
4.396,18.77147423092289
4.397,18.77347183379944
4.398,18.775469436675987
4.399,18.777467039552533
4.4,18.779464642429083
4.401,18.78146224530564
4.402,18.78345984818218
4.4030000000000005,18.78545745105873
4.404,18.787455053935275
4.405,18.789452656811825
4.406,18.79145025968837
4.407,18.79344786256492
4.408,18.795445465441468
4.409,18.797443068318017
4.41,18.799440671194564
4.4110000000000005,18.80143827407112
4.412,18.80343587694766
4.413,18.80543347982421
4.414,18.80743108270076
4.415,18.809428685577306
4.416,18.81142628845385
4.417,18.8134238913304
4.418,18.81542149420695
4.4190000000000005,18.81741909708349
4.42,18.819416699960048
4.421,18.8214143028366
4.422,18.823411905713144
4.423,18.82540950858969
4.424,18.82740711146624
4.425,18.829404714342783
4.426,18.831402317219336
4.4270000000000005,18.83339992009588
4.428,18.835397522972432
4.429,18.83739512584898
4.43,18.839392728725528
4.431,18.841390331602074
4.432,18.843387934478624
4.433,18.84538553735517
4.434,18.84738314023172
4.4350000000000005,18.849380743108267
4.436,18.851378345984816
4.437,18.85337594886137
4.438,18.855373551737912
4.439,18.857371154614462
4.44,18.85936875749101
4.441,18.86136636036756
4.442,18.863363963244105
4.4430000000000005,18.86536156612065
4.444,18.8673591689972
4.445,18.86935677187375
4.446,18.871354374750297
4.447,18.873351977626847
4.448,18.8753495805034
4.449,18.877347183379943
4.45,18.87934478625649
4.4510000000000005,18.88134238913304
4.452,18.883339992009585
4.453,18.88533759488613
4.454,18.88733519776268
4.455,18.88933280063923
4.456,18.89133040351578
4.457,18.893328006392327
4.458,18.89532560926888
4.4590000000000005,18.897323212145423
4.46,18.899320815021973
4.461,18.90131841789852
4.462,18.90331602077507
4.463,18.90531362365161
4.464,18.907311226528165
4.465,18.90930882940471
4.466,18.91130643228126
4.4670000000000005,18.913304035157807
4.468,18.91530163803436
4.469,18.917299240910904
4.47,18.919296843787453
4.471,18.921294446664
4.472,18.92329204954055
4.473,18.9252896524171
4.474,18.92728725529365
4.4750000000000005,18.929284858170195
4.476,18.93128246104674
4.477,18.93328006392329
4.478,18.93527766679984
4.479,18.937275269676388
4.48,18.93927287255293
4.481,18.941270475429484
4.482,18.94326807830603
4.483,18.94526568118258
4.484,18.94726328405913
4.485,18.94926088693568
4.486,18.951258489812226
4.487,18.95325609268877
4.488,18.95525369556532
4.489,18.957251298441868
4.49,18.95924890131841
4.491,18.961246504194964
4.492,18.96324410707152
4.493,18.96524170994806
4.494,18.96723931282461
4.495,18.96923691570116
4.496,18.971234518577702
4.497,18.97323212145425
4.498,18.9752297243308
4.499,18.97722732720735
4.5,18.97922493008389
4.501,18.981222532960444
4.502,18.983220135836994
4.503,18.98521773871354
4.5040000000000004,18.98721534159009
4.505,18.98921294446664
4.506,18.991210547343183
4.507,18.993208150219733
4.508,18.995205753096283
4.509,18.997203355972832
4.51,18.99920095884938
4.511,19.00119856172593
4.5120000000000005,19.003196164602475
4.513,19.005193767479025
4.514,19.00719137035557
4.515,19.00918897323212
4.516,19.011186576108667
4.517,19.013184178985217
4.518,19.015181781861763
4.519,19.01717938473832
4.5200000000000005,19.01917698761486
4.521,19.02117459049141
4.522,19.023172193367955
4.523,19.025169796244505
4.524,19.02716739912105
4.525,19.0291650019976
4.526,19.031162604874147
4.527,19.033160207750697
4.5280000000000005,19.035157810627247
4.529,19.0371554135038
4.53,19.039153016380343
4.531,19.04115061925689
4.532,19.04314822213344
4.533,19.045145825009985
4.534,19.04714342788653
4.535,19.04914103076308
4.5360000000000005,19.05113863363963
4.537,19.053136236516178
4.538,19.055133839392727
4.539,19.05713144226928
4.54,19.059129045145824
4.541,19.06112664802237
4.542,19.06312425089892
4.543,19.065121853775462
4.5440000000000005,19.067119456652016
4.545,19.06911705952857
4.546,19.07111466240511
4.547,19.07311226528166
4.548,19.075109868158208
4.549,19.07710747103476
4.55,19.079105073911304
4.551,19.081102676787854
4.5520000000000005,19.0831002796644
4.553,19.08509788254095
