Time,II
0.0,-1.149
0.001997602876548142,-1.149
0.003995205753096284,-1.145
0.005992808629644426,-1.147
0.007990411506192568,-1.149
0.00998801438274071,-1.15
0.011985617259288851,-1.151
0.013983220135836994,-1.147
0.015980823012385136,-1.148
0.017978425888933277,-1.148
0.01997602876548142,-1.146
0.021973631642029562,-1.145
0.023971234518577703,-1.143
0.025968837395125847,-1.145
0.027966440271673988,-1.144
0.02996404314822213,-1.141
0.03196164602477027,-1.141
0.03395924890131841,-1.137
0.035956851777866554,-1.135
0.0379544546544147,-1.131
0.03995205753096284,-1.131
0.04194966040751098,-1.135
0.043947263284059124,-1.135
0.045944866160607264,-1.136
0.047942469037155405,-1.137
0.04994007191370355,-1.128
0.051937674790251694,-1.127
0.053935277666799834,-1.129
0.055932880543347975,-1.129
0.057930483419896116,-1.131
0.05992808629644426,-1.131
0.061925689172992404,-1.131
0.06392329204954054,-1.133
0.06592089492608869,-1.135
0.06791849780263683,-1.133
0.06991610067918497,-1.131
0.07191370355573311,-1.13
0.07391130643228125,-1.128
0.0759089093088294,-1.124
0.07790651218537754,-1.116
0.07990411506192568,-1.115
0.08190171793847383,-1.112
0.08389932081502197,-1.113
0.0858969236915701,-1.113
0.08789452656811825,-1.104
0.08989212944466639,-1.101
0.09188973232121453,-1.107
0.09388733519776267,-1.111
0.09588493807431081,-1.104
0.09788254095085897,-1.097
0.0998801438274071,-1.1
0.10187774670395525,-1.109
0.10387534958050339,-1.105
0.10587295245705153,-1.097
0.10787055533359967,-1.097
0.10986815821014781,-1.097
0.11186576108669595,-1.1
0.11386336396324409,-1.098
0.11586096683979223,-1.091
0.11785856971634039,-1.089
0.11985617259288853,-1.087
0.12185377546943667,-1.087
0.12385137834598481,-1.087
0.12584898122253294,-1.084
0.1278465840990811,-1.079
0.12984418697562924,-1.075
0.13184178985217737,-1.077
0.13383939272872553,-1.074
0.13583699560527365,-1.073
0.1378345984818218,-1.07
0.13983220135836993,-1.069
0.1418298042349181,-1.067
0.14382740711146622,-1.063
0.14582500998801437,-1.058
0.1478226128645625,-1.055
0.14982021574111065,-1.055
0.1518178186176588,-1.051
0.15381542149420693,-1.054
0.1558130243707551,-1.051
0.15781062724730321,-1.038
0.15980823012385137,-1.034
0.1618058330003995,-1.03
0.16380343587694765,-1.026
0.16580103875349578,-1.029
0.16779864163004393,-1.027
0.16979624450659206,-1.02
0.1717938473831402,-1.016
0.17379145025968837,-1.01
0.1757890531362365,-1.004
0.17778665601278465,-1.001
0.17978425888933278,-1.001
0.18178186176588093,-0.997
0.18377946464242906,-0.985
0.1857770675189772,-0.978
0.18777467039552534,-0.976
0.1897722732720735,-0.969
0.19176987614862162,-0.966
0.19376747902516978,-0.965
0.19576508190171793,-0.959
0.19776268477826606,-0.953
0.1997602876548142,-0.95
0.20175789053136234,-0.944
0.2037554934079105,-0.939
0.20575309628445862,-0.934
0.20775069916100677,-0.93
0.2097483020375549,-0.926
0.21174590491410306,-0.923
0.2137435077906512,-0.918
0.21574111066719934,-0.912
0.2177387135437475,-0.91
0.21973631642029562,-0.908
0.22173391929684377,-0.907
0.2237315221733919,-0.901
0.22572912504994005,-0.893
0.22772672792648818,-0.888
0.22972433080303634,-0.884
0.23172193367958446,-0.882
0.23371953655613262,-0.877
0.23571713943268077,-0.875
0.2377147423092289,-0.871
0.23971234518577705,-0.867
0.24170994806232518,-0.869
0.24370755093887334,-0.867
0.24570515381542146,-0.866
0.24770275669196962,-0.865
0.24970035956851774,-0.86
0.25169796244506587,-0.854
0.253695565321614,-0.846
0.2556931681981622,-0.847
0.25769077107471033,-0.849
0.2596883739512585,-0.84
0.2616859768278066,-0.842
0.26368357970435474,-0.841
0.2656811825809029,-0.832
0.26767878545745105,-0.832
0.26967638833399915,-0.829
0.2716739912105473,-0.823
0.27367159408709546,-0.817
0.2756691969636436,-0.817
0.27766679984019177,-0.815
0.27966440271673987,-0.81
0.281662005593288,-0.807
0.2836596084698362,-0.807
0.28565721134638433,-0.806
0.28765481422293243,-0.804
0.2896524170994806,-0.808
0.29165001997602874,-0.808
0.2936476228525769,-0.81
0.295645225729125,-0.811
0.29764282860567315,-0.815
0.2996404314822213,-0.82
0.30163803435876946,-0.821
0.3036356372353176,-0.826
0.3056332401118657,-0.83
0.30763084298841387,-0.835
0.309628445864962,-0.842
0.3116260487415102,-0.847
0.3136236516180583,-0.851
0.31562125449460643,-0.857
0.3176188573711546,-0.861
0.31961646024770274,-0.865
0.3216140631242509,-0.87
0.323611666000799,-0.879
0.32560926887734715,-0.894
0.3276068717538953,-0.902
0.32960447463044346,-0.906
0.33160207750699155,-0.91
0.3335996803835397,-0.918
0.33559728326008786,-0.927
0.337594886136636,-0.932
0.3395924890131841,-0.943
0.3415900918897323,-0.952
0.3435876947662804,-0.954
0.3455852976428286,-0.959
0.34758290051937674,-0.962
0.34958050339592484,-0.965
0.351578106272473,-0.969
0.35357570914902114,-0.977
0.3555733120255693,-0.987
0.3575709149021174,-0.992
0.35956851777866555,-1.0
0.3615661206552137,-1.004
0.36356372353176186,-1.007
0.36556132640831,-1.014
0.3675589292848581,-1.016
0.36955653216140627,-1.02
0.3715541350379544,-1.029
0.3735517379145026,-1.032
0.3755493407910507,-1.038
0.37754694366759883,-1.041
0.379544546544147,-1.04
0.38154214942069514,-1.048
0.38353975229724324,-1.053
0.3855373551737914,-1.054
0.38753495805033955,-1.056
0.3895325609268877,-1.06
0.39153016380343586,-1.063
0.39352776667998396,-1.065
0.3955253695565321,-1.068
0.39752297243308027,-1.073
0.3995205753096284,-1.075
0.4015181781861765,-1.079
0.4035157810627247,-1.083
0.40551338393927283,-1.085
0.407510986815821,-1.089
0.40950858969236914,-1.087
0.41150619256891724,-1.087
0.4135037954454654,-1.087
0.41550139832201355,-1.089
0.4174990011985617,-1.093
0.4194966040751098,-1.097
0.42149420695165796,-1.104
0.4234918098282061,-1.106
0.42548941270475427,-1.103
0.4274870155813024,-1.107
0.4294846184578505,-1.108
0.4314822213343987,-1.103
0.43347982421094683,-1.105
0.435477427087495,-1.105
0.4374750299640431,-1.105
0.43947263284059124,-1.107
0.4414702357171394,-1.111
0.44346783859368755,-1.113
0.44546544147023565,-1.114
0.4474630443467838,-1.117
0.44946064722333195,-1.115
0.4514582500998801,-1.111
0.45345585297642826,-1.114
0.45545345585297636,-1.119
0.4574510587295245,-1.116
0.4594486616060727,-1.113
0.4614462644826208,-1.113
0.4634438673591689,-1.115
0.4654414702357171,-1.117
0.46743907311226524,-1.119
0.4694366759888134,-1.123
0.47143427886536154,-1.122
0.47343188174190964,-1.121
0.4754294846184578,-1.121
0.47742708749500595,-1.116
0.4794246903715541,-1.111
0.4814222932481022,-1.111
0.48341989612465036,-1.116
0.4854174990011985,-1.12
0.48741510187774667,-1.121
0.48941270475429477,-1.121
0.4914103076308429,-1.119
0.4934079105073911,-1.119
0.49540551338393923,-1.124
0.4974031162604874,-1.127
0.4994007191370355,-1.124
0.5013983220135837,-1.126
0.5033959248901317,-1.125
0.5053935277666799,-1.124
0.507391130643228,-1.127
0.5093887335197762,-1.127
0.5113863363963244,-1.127
0.5133839392728725,-1.128
0.5153815421494207,-1.127
0.5173791450259688,-1.121
0.519376747902517,-1.121
0.521374350779065,-1.121
0.5233719536556132,-1.123
0.5253695565321613,-1.127
0.5273671594087095,-1.129
0.5293647622852576,-1.128
0.5313623651618058,-1.127
0.533359968038354,-1.129
0.5353575709149021,-1.129
0.5373551737914503,-1.127
0.5393527766679983,-1.132
0.5413503795445465,-1.135
0.5433479824210946,-1.133
0.5453455852976428,-1.133
0.5473431881741909,-1.133
0.5493407910507391,-1.131
0.5513383939272872,-1.128
0.5533359968038354,-1.13
0.5553335996803835,-1.129
0.5573312025569316,-1.125
0.5593288054334797,-1.128
0.5613264083100279,-1.128
0.563324011186576,-1.125
0.5653216140631242,-1.125
0.5673192169396724,-1.129
0.5693168198162205,-1.127
0.5713144226927687,-1.126
0.5733120255693167,-1.125
0.5753096284458649,-1.127
0.577307231322413,-1.133
0.5793048341989612,-1.129
0.5813024370755093,-1.128
0.5833000399520575,-1.127
0.5852976428286056,-1.125
0.5872952457051538,-1.125
0.589292848581702,-1.127
0.59129045145825,-1.129
0.5932880543347981,-1.125
0.5952856572113463,-1.119
0.5972832600878945,-1.115
0.5992808629644426,-1.114
0.6012784658409908,-1.119
0.6032760687175389,-1.121
0.6052736715940871,-1.124
0.6072712744706352,-1.126
0.6092688773471833,-1.125
0.6112664802237314,-1.125
0.6132640831002796,-1.125
0.6152616859768277,-1.127
0.6172592888533759,-1.129
0.619256891729924,-1.129
0.6212544946064722,-1.129
0.6232520974830204,-1.128
0.6252497003595685,-1.13
0.6272473032361165,-1.131
0.6292449061126647,-1.129
0.6312425089892129,-1.13
0.633240111865761,-1.128
0.6352377147423092,-1.131
0.6372353176188573,-1.137
0.6392329204954055,-1.138
0.6412305233719536,-1.138
0.6432281262485018,-1.141
0.6452257291250498,-1.142
0.647223332001598,-1.137
0.6492209348781461,-1.135
0.6512185377546943,-1.135
0.6532161406312424,-1.133
0.6552137435077906,-1.134
0.6572113463843388,-1.135
0.6592089492608869,-1.14
0.6612065521374351,-1.141
0.6632041550139831,-1.138
0.6652017578905313,-1.138
0.6671993607670794,-1.136
0.6691969636436276,-1.136
0.6711945665201757,-1.141
0.6731921693967239,-1.142
0.675189772273272,-1.141
0.6771873751498202,-1.138
0.6791849780263682,-1.135
0.6811825809029164,-1.137
0.6831801837794645,-1.139
0.6851777866560127,-1.141
0.6871753895325609,-1.147
0.689172992409109,-1.148
0.6911705952856572,-1.147
0.6931681981622053,-1.147
0.6951658010387535,-1.15
0.6971634039153015,-1.151
0.6991610067918497,-1.149
0.7011586096683978,-1.15
0.703156212544946,-1.149
0.7051538154214941,-1.149
0.7071514182980423,-1.151
0.7091490211745904,-1.154
0.7111466240511386,-1.154
0.7131442269276868,-1.153
0.7151418298042348,-1.153
0.717139432680783,-1.149
0.7191370355573311,-1.149
0.7211346384338793,-1.147
0.7231322413104274,-1.147
0.7251298441869756,-1.149
0.7271274470635237,-1.145
0.7291250499400719,-1.149
0.73112265281662,-1.146
0.7331202556931681,-1.141
0.7351178585697162,-1.145
0.7371154614462644,-1.149
0.7391130643228125,-1.151
0.7411106671993607,-1.151
0.7431082700759088,-1.149
0.745105872952457,-1.146
0.7471034758290052,-1.144
0.7491010787055533,-1.147
0.7510986815821014,-1.149
0.7530962844586495,-1.15
0.7550938873351977,-1.15
0.7570914902117458,-1.147
0.759089093088294,-1.149
0.7610866959648421,-1.147
0.7630842988413903,-1.145
0.7650819017179384,-1.15
0.7670795045944865,-1.147
0.7690771074710346,-1.147
0.7710747103475828,-1.147
0.773072313224131,-1.145
0.7750699161006791,-1.151
0.7770675189772273,-1.155
0.7790651218537754,-1.156
0.7810627247303236,-1.159
0.7830603276068717,-1.157
0.7850579304834198,-1.157
0.7870555333599679,-1.16
0.7890531362365161,-1.158
0.7910507391130642,-1.155
0.7930483419896124,-1.155
0.7950459448661605,-1.163
0.7970435477427087,-1.167
0.7990411506192568,-1.167
0.801038753495805,-1.171
0.803036356372353,-1.167
0.8050339592489012,-1.167
0.8070315621254494,-1.171
0.8090291650019975,-1.168
0.8110267678785457,-1.167
0.8130243707550938,-1.165
0.815021973631642,-1.166
0.8170195765081901,-1.167
0.8190171793847383,-1.165
0.8210147822612863,-1.166
0.8230123851378345,-1.171
0.8250099880143826,-1.173
0.8270075908909308,-1.174
0.8290051937674789,-1.173
0.8310027966440271,-1.173
0.8330003995205753,-1.174
0.8349980023971234,-1.173
0.8369956052736716,-1.172
0.8389932081502196,-1.171
0.8409908110267678,-1.169
0.8429884139033159,-1.171
0.8449860167798641,-1.172
0.8469836196564122,-1.169
0.8489812225329604,-1.167
0.8509788254095085,-1.165
0.8529764282860567,-1.167
0.8549740311626048,-1.169
0.8569716340391529,-1.169
0.858969236915701,-1.169
0.8609668397922492,-1.171
0.8629644426687973,-1.171
0.8649620455453455,-1.171
0.8669596484218937,-1.169
0.8689572512984418,-1.169
0.87095485417499,-1.168
0.872952457051538,-1.167
0.8749500599280862,-1.167
0.8769476628046343,-1.167
0.8789452656811825,-1.169
0.8809428685577306,-1.169
0.8829404714342788,-1.169
0.8849380743108269,-1.169
0.8869356771873751,-1.171
0.8889332800639232,-1.171
0.8909308829404713,-1.169
0.8929284858170194,-1.173
0.8949260886935676,-1.174
0.8969236915701158,-1.174
0.8989212944466639,-1.173
0.9009188973232121,-1.173
0.9029165001997602,-1.172
0.9049141030763084,-1.175
0.9069117059528565,-1.171
0.9089093088294046,-1.169
0.9109069117059527,-1.17
0.9129045145825009,-1.171
0.914902117459049,-1.177
0.9168997203355972,-1.175
0.9188973232121453,-1.173
0.9208949260886935,-1.176
0.9228925289652417,-1.174
0.9248901318417898,-1.175
0.9268877347183379,-1.177
0.928885337594886,-1.177
0.9308829404714342,-1.175
0.9328805433479823,-1.173
0.9348781462245305,-1.179
0.9368757491010786,-1.181
0.9388733519776268,-1.183
0.9408709548541749,-1.187
0.9428685577307231,-1.183
0.9448661606072711,-1.178
0.9468637634838193,-1.177
0.9488613663603674,-1.18
0.9508589692369156,-1.179
0.9528565721134638,-1.177
0.9548541749900119,-1.176
0.9568517778665601,-1.179
0.9588493807431082,-1.179
0.9608469836196564,-1.177
0.9628445864962044,-1.179
0.9648421893727526,-1.181
0.9668397922493007,-1.183
0.9688373951258489,-1.181
0.970834998002397,-1.175
0.9728326008789452,-1.173
0.9748302037554933,-1.175
0.9768278066320415,-1.179
0.9788254095085895,-1.179
0.9808230123851377,-1.181
0.9828206152616858,-1.185
0.984818218138234,-1.185
0.9868158210147822,-1.183
0.9888134238913303,-1.183
0.9908110267678785,-1.183
0.9928086296444266,-1.181
0.9948062325209748,-1.183
0.9968038353975228,-1.181
0.998801438274071,-1.178
1.0007990411506191,-1.177
1.0027966440271674,-1.177
1.0047942469037154,-1.177
1.0067918497802635,-1.177
1.0087894526568117,-1.175
1.0107870555333598,-1.175
1.012784658409908,-1.173
1.014782261286456,-1.169
1.0167798641630044,-1.169
1.0187774670395524,-1.17
1.0207750699161007,-1.177
1.0227726727926487,-1.185
1.0247702756691968,-1.183
1.026767878545745,-1.179
1.028765481422293,-1.179
1.0307630842988413,-1.177
1.0327606871753894,-1.178
1.0347582900519376,-1.178
1.0367558929284857,-1.173
1.038753495805034,-1.173
1.040751098681582,-1.177
1.04274870155813,-1.175
1.0447463044346783,-1.175
1.0467439073112264,-1.177
1.0487415101877746,-1.177
1.0507391130643227,-1.177
1.052736715940871,-1.177
1.054734318817419,-1.174
1.0567319216939672,-1.179
1.0587295245705153,-1.177
1.0607271274470633,-1.176
1.0627247303236116,-1.177
1.0647223332001596,-1.173
1.066719936076708,-1.175
1.068717538953256,-1.175
1.0707151418298042,-1.178
1.0727127447063523,-1.179
1.0747103475829005,-1.176
1.0767079504594486,-1.177
1.0787055533359966,-1.177
1.0807031562125449,-1.177
1.082700759089093,-1.174
1.0846983619656412,-1.175
1.0866959648421892,-1.179
1.0886935677187375,-1.179
1.0906911705952855,-1.18
1.0926887734718338,-1.179
1.0946863763483818,-1.177
1.0966839792249299,-1.173
1.0986815821014781,-1.173
1.1006791849780262,-1.171
1.1026767878545745,-1.171
1.1046743907311225,-1.173
1.1066719936076708,-1.177
1.1086695964842188,-1.183
1.110667199360767,-1.182
1.1126648022373151,-1.18
1.1146624051138632,-1.184
1.1166600079904114,-1.181
1.1186576108669595,-1.176
1.1206552137435077,-1.178
1.1226528166200558,-1.181
1.124650419496604,-1.179
1.126648022373152,-1.18
1.1286456252497001,-1.181
1.1306432281262484,-1.185
1.1326408310027964,-1.179
1.1346384338793447,-1.177
1.1366360367558928,-1.182
1.138633639632441,-1.18
1.140631242508989,-1.179
1.1426288453855373,-1.179
1.1446264482620854,-1.178
1.1466240511386334,-1.178
1.1486216540151817,-1.177
1.1506192568917297,-1.177
1.152616859768278,-1.181
1.154614462644826,-1.178
1.1566120655213743,-1.176
1.1586096683979223,-1.177
1.1606072712744706,-1.175
1.1626048741510187,-1.173
1.1646024770275667,-1.171
1.166600079904115,-1.171
1.168597682780663,-1.173
1.1705952856572113,-1.173
1.1725928885337593,-1.174
1.1745904914103076,-1.171
1.1765880942868556,-1.174
1.178585697163404,-1.178
1.180583300039952,-1.177
1.1825809029165,-1.179
1.1845785057930482,-1.177
1.1865761086695963,-1.175
1.1885737115461446,-1.173
1.1905713144226926,-1.173
1.1925689172992409,-1.169
1.194566520175789,-1.167
1.1965641230523372,-1.165
1.1985617259288852,-1.159
1.2005593288054333,-1.164
1.2025569316819815,-1.163
1.2045545345585296,-1.162
1.2065521374350778,-1.163
1.2085497403116259,-1.159
1.2105473431881741,-1.161
1.2125449460647222,-1.161
1.2145425489412705,-1.159
1.2165401518178185,-1.163
1.2185377546943665,-1.161
1.2205353575709148,-1.155
1.2225329604474628,-1.152
1.2245305633240111,-1.145
1.2265281662005592,-1.143
1.2285257690771074,-1.141
1.2305233719536555,-1.135
1.2325209748302037,-1.134
1.2345185777067518,-1.127
1.2365161805832998,-1.121
1.238513783459848,-1.117
1.2405113863363961,-1.113
1.2425089892129444,-1.111
1.2445065920894924,-1.111
1.2465041949660407,-1.11
1.2485017978425887,-1.108
1.250499400719137,-1.107
1.252497003595685,-1.109
1.254494606472233,-1.114
1.2564922093487814,-1.117
1.2584898122253294,-1.113
1.2604874151018777,-1.11
1.2624850179784257,-1.111
1.264482620854974,-1.11
1.266480223731522,-1.105
1.2684778266080703,-1.101
1.2704754294846183,-1.1
1.2724730323611664,-1.1
1.2744706352377146,-1.095
1.2764682381142627,-1.089
1.278465840990811,-1.084
1.280463443867359,-1.08
1.2824610467439073,-1.077
1.2844586496204553,-1.069
1.2864562524970036,-1.062
1.2884538553735516,-1.054
1.2904514582500997,-1.052
1.292449061126648,-1.046
1.294446664003196,-1.04
1.2964442668797442,-1.04
1.2984418697562923,-1.036
1.3004394726328405,-1.034
1.3024370755093886,-1.032
1.3044346783859369,-1.028
1.306432281262485,-1.028
1.308429884139033,-1.032
1.3104274870155812,-1.038
1.3124250898921292,-1.044
1.3144226927686775,-1.042
1.3164202956452256,-1.038
1.3184178985217738,-1.036
1.3204155013983219,-1.037
1.3224131042748701,-1.042
1.3244107071514182,-1.044
1.3264083100279662,-1.047
1.3284059129045145,-1.052
1.3304035157810625,-1.052
1.3324011186576108,-1.05
1.3343987215341588,-1.051
1.336396324410707,-1.054
1.3383939272872551,-1.056
1.3403915301638032,-1.058
1.3423891330403515,-1.063
1.3443867359168995,-1.067
1.3463843387934478,-1.069
1.3483819416699958,-1.073
1.350379544546544,-1.077
1.3523771474230921,-1.081
1.3543747502996404,-1.089
1.3563723531761884,-1.092
1.3583699560527365,-1.093
1.3603675589292847,-1.101
1.3623651618058328,-1.101
1.364362764682381,-1.101
1.366360367558929,-1.103
1.3683579704354774,-1.103
1.3703555733120254,-1.104
1.3723531761885737,-1.105
1.3743507790651217,-1.107
1.3763483819416698,-1.107
1.378345984818218,-1.113
1.380343587694766,-1.113
1.3823411905713143,-1.11
1.3843387934478624,-1.113
1.3863363963244106,-1.117
1.3883339992009587,-1.121
1.390331602077507,-1.125
1.392329204954055,-1.131
1.394326807830603,-1.133
1.3963244107071513,-1.132
1.3983220135836993,-1.138
1.4003196164602476,-1.149
1.4023172193367957,-1.153
1.404314822213344,-1.153
1.406312425089892,-1.155
1.4083100279664402,-1.157
1.4103076308429883,-1.159
1.4123052337195363,-1.163
1.4143028365960846,-1.167
1.4163004394726326,-1.17
1.4182980423491809,-1.177
1.420295645225729,-1.183
1.4222932481022772,-1.185
1.4242908509788252,-1.184
1.4262884538553735,-1.19
1.4282860567319215,-1.196
1.4302836596084696,-1.197
1.4322812624850179,-1.2
1.434278865361566,-1.201
1.4362764682381142,-1.198
1.4382740711146622,-1.199
1.4402716739912105,-1.203
1.4422692768677585,-1.204
1.4442668797443068,-1.204
1.4462644826208548,-1.202
1.4482620854974029,-1.204
1.4502596883739511,-1.205
1.4522572912504992,-1.206
1.4542548941270474,-1.208
1.4562524970035955,-1.209
1.4582500998801438,-1.21
1.4602477027566918,-1.21
1.46224530563324,-1.214
1.464242908509788,-1.214
1.4662405113863362,-1.214
1.4682381142628844,-1.212
1.4702357171394325,-1.21
1.4722333200159807,-1.212
1.4742309228925288,-1.214
1.476228525769077,-1.21
1.478226128645625,-1.208
1.4802237315221733,-1.21
1.4822213343987214,-1.209
1.4842189372752694,-1.21
1.4862165401518177,-1.21
1.4882141430283657,-1.21
1.490211745904914,-1.212
1.492209348781462,-1.214
1.4942069516580103,-1.218
1.4962045545345584,-1.22
1.4982021574111066,-1.218
1.5001997602876547,-1.219
1.5021973631642027,-1.221
1.504194966040751,-1.222
1.506192568917299,-1.224
1.5081901717938473,-1.222
1.5101877746703953,-1.226
1.5121853775469436,-1.244
1.5141829804234916,-1.253
1.51618058330004,-1.26
1.518178186176588,-1.269
1.520175789053136,-1.272
1.5221733919296843,-1.274
1.5241709948062323,-1.273
1.5261685976827806,-1.269
1.5281662005593286,-1.257
1.5301638034358769,-1.244
1.532161406312425,-1.231
1.534159009188973,-1.208
1.5361566120655212,-1.185
1.5381542149420693,-1.16
1.5401518178186175,-1.145
1.5421494206951656,-1.128
1.5441470235717139,-1.103
1.546144626448262,-1.081
1.5481422293248102,-1.054
1.5501398322013582,-1.028
1.5521374350779062,-1.0
1.5541350379544545,-0.966
1.5561326408310026,-0.918
1.5581302437075508,-0.849
1.5601278465840989,-0.771
1.5621254494606471,-0.693
1.5641230523371952,-0.607
1.5661206552137434,-0.53
1.5681182580902915,-0.467
1.5701158609668395,-0.407
1.5721134638433878,-0.35
1.5741110667199358,-0.294
1.576108669596484,-0.235
1.5781062724730321,-0.184
1.5801038753495804,-0.151
1.5821014782261285,-0.135
1.5840990811026767,-0.114
1.5860966839792248,-0.076
1.5880942868557728,-0.051
1.590091889732321,-0.048
1.5920894926088691,-0.039
1.5940870954854174,-0.033
1.5960846983619654,-0.034
1.5980823012385137,-0.042
1.6000799041150617,-0.051
1.60207750699161,-0.057
1.604075109868158,-0.078
1.606072712744706,-0.09
1.6080703156212544,-0.083
1.6100679184978024,-0.089
1.6120655213743507,-0.108
1.6140631242508987,-0.128
1.616060727127447,-0.162
1.618058330003995,-0.204
1.6200559328805433,-0.255
1.6220535357570913,-0.308
1.6240511386336394,-0.365
1.6260487415101876,-0.431
1.6280463443867357,-0.502
1.630043947263284,-0.569
1.632041550139832,-0.612
1.6340391530163803,-0.631
1.6360367558929283,-0.651
1.6380343587694766,-0.668
1.6400319616460246,-0.696
1.6420295645225726,-0.735
1.644027167399121,-0.765
1.646024770275669,-0.802
1.6480223731522172,-0.846
1.6500199760287653,-0.883
1.6520175789053135,-0.908
1.6540151817818616,-0.931
1.6560127846584098,-0.952
1.6580103875349579,-0.964
1.660007990411506,-0.977
1.6620055932880542,-0.996
1.6640031961646022,-1.014
1.6660007990411505,-1.029
1.6679984019176985,-1.042
1.6699960047942468,-1.052
1.6719936076707949,-1.06
1.6739912105473431,-1.067
1.6759888134238912,-1.075
1.6779864163004392,-1.081
1.6799840191769875,-1.087
1.6819816220535355,-1.095
1.6839792249300838,-1.101
1.6859768278066318,-1.105
1.68797443068318,-1.11
1.6899720335597281,-1.115
1.6919696364362764,-1.121
1.6939672393128244,-1.123
1.6959648421893725,-1.127
1.6979624450659208,-1.133
1.6999600479424688,-1.136
1.701957650819017,-1.141
1.703955253695565,-1.143
1.7059528565721134,-1.144
1.7079504594486614,-1.147
1.7099480623252097,-1.151
1.7119456652017577,-1.154
1.7139432680783058,-1.155
1.715940870954854,-1.155
1.717938473831402,-1.151
1.7199360767079503,-1.151
1.7219336795844984,-1.153
1.7239312824610467,-1.158
1.7259288853375947,-1.157
1.727926488214143,-1.159
1.729924091090691,-1.163
1.731921693967239,-1.163
1.7339192968437873,-1.163
1.7359168997203354,-1.163
1.7379145025968836,-1.165
1.7399121054734317,-1.163
1.74190970834998,-1.162
1.743907311226528,-1.163
1.745904914103076,-1.163
1.7479025169796243,-1.163
1.7499001198561723,-1.164
1.7518977227327206,-1.167
1.7538953256092686,-1.165
1.755892928485817,-1.161
1.757890531362365,-1.161
1.7598881342389132,-1.163
1.7618857371154613,-1.163
1.7638833399920093,-1.161
1.7658809428685576,-1.159
1.7678785457451056,-1.161
1.7698761486216539,-1.167
1.771873751498202,-1.165
1.7738713543747502,-1.163
1.7758689572512982,-1.165
1.7778665601278465,-1.164
1.7798641630043945,-1.164
1.7818617658809426,-1.163
1.7838593687574908,-1.158
1.785856971634039,-1.154
1.7878545745105872,-1.153
1.7898521773871352,-1.155
1.7918497802636835,-1.159
1.7938473831402315,-1.155
1.7958449860167798,-1.155
1.7978425888933278,-1.16
1.7998401917698759,-1.154
1.8018377946464241,-1.149
1.8038353975229722,-1.149
1.8058330003995204,-1.153
1.8078306032760685,-1.152
1.8098282061526167,-1.155
1.8118258090291648,-1.157
1.813823411905713,-1.155
1.815821014782261,-1.155
1.8178186176588091,-1.155
1.8198162205353574,-1.159
1.8218138234119055,-1.159
1.8238114262884537,-1.158
1.8258090291650018,-1.157
1.82780663204155,-1.157
1.829804234918098,-1.157
1.8318018377946463,-1.155
1.8337994406711944,-1.154
1.8357970435477424,-1.15
1.8377946464242907,-1.145
1.8397922493008387,-1.145
1.841789852177387,-1.145
1.843787455053935,-1.145
1.8457850579304833,-1.145
1.8477826608070314,-1.142
1.8497802636835796,-1.143
1.8517778665601277,-1.142
1.8537754694366757,-1.142
1.855773072313224,-1.141
1.857770675189772,-1.141
1.8597682780663203,-1.139
1.8617658809428683,-1.139
1.8637634838194166,-1.135
1.8657610866959646,-1.133
1.867758689572513,-1.134
1.869756292449061,-1.139
1.871753895325609,-1.138
1.8737514982021573,-1.131
1.8757491010787053,-1.129
1.8777467039552536,-1.125
1.8797443068318016,-1.124
1.8817419097083499,-1.125
1.883739512584898,-1.127
1.8857371154614462,-1.125
1.8877347183379942,-1.121
1.8897323212145423,-1.119
1.8917299240910905,-1.121
1.8937275269676386,-1.121
1.8957251298441868,-1.12
1.8977227327207349,-1.118
1.8997203355972831,-1.12
1.9017179384738312,-1.118
1.9037155413503795,-1.113
1.9057131442269275,-1.111
1.9077107471034755,-1.11
1.9097083499800238,-1.111
1.9117059528565719,-1.109
1.9137035557331201,-1.105
1.9157011586096682,-1.106
1.9176987614862164,-1.104
1.9196963643627645,-1.1
1.9216939672393127,-1.101
1.9236915701158608,-1.105
1.9256891729924088,-1.103
1.927686775868957,-1.099
1.9296843787455051,-1.096
1.9316819816220534,-1.091
1.9336795844986014,-1.086
1.9356771873751497,-1.087
1.9376747902516978,-1.091
1.939672393128246,-1.089
1.941669996004794,-1.084
1.943667598881342,-1.083
1.9456652017578904,-1.082
1.9476628046344384,-1.083
1.9496604075109867,-1.081
1.9516580103875347,-1.083
1.953655613264083,-1.081
1.955653216140631,-1.073
1.957650819017179,-1.075
1.9596484218937273,-1.077
1.9616460247702754,-1.075
1.9636436276468237,-1.073
1.9656412305233717,-1.069
1.96763883339992,-1.067
1.969636436276468,-1.066
1.9716340391530163,-1.062
1.9736316420295643,-1.056
1.9756292449061124,-1.056
1.9776268477826606,-1.058
1.9796244506592087,-1.058
1.981622053535757,-1.056
1.983619656412305,-1.048
1.9856172592888532,-1.042
1.9876148621654013,-1.04
1.9896124650419496,-1.042
1.9916100679184976,-1.04
1.9936076707950456,-1.032
1.995605273671594,-1.024
1.997602876548142,-1.02
1.9996004794246902,-1.018
2.0015980823012383,-1.017
2.0035956851777863,-1.015
2.005593288054335,-1.014
2.007590890930883,-1.012
2.009588493807431,-1.006
2.011586096683979,-1.004
2.013583699560527,-1.001
2.0155813024370755,-0.997
2.0175789053136235,-0.992
2.0195765081901715,-0.989
2.0215741110667196,-0.986
2.023571713943268,-0.982
2.025569316819816,-0.977
2.027566919696364,-0.972
2.029564522572912,-0.968
2.0315621254494602,-0.964
2.0335597283260087,-0.959
2.0355573312025568,-0.952
2.037554934079105,-0.948
2.039552536955653,-0.945
2.0415501398322013,-0.943
2.0435477427087494,-0.943
2.0455453455852974,-0.939
2.0475429484618455,-0.935
2.0495405513383935,-0.927
2.051538154214942,-0.92
2.05353575709149,-0.918
2.055533359968038,-0.917
2.057530962844586,-0.91
2.0595285657211346,-0.907
2.0615261685976827,-0.905
2.0635237714742307,-0.894
2.0655213743507788,-0.889
2.067518977227327,-0.881
2.0695165801038753,-0.877
2.0715141829804233,-0.879
2.0735117858569714,-0.875
2.0755093887335194,-0.867
2.077506991610068,-0.858
2.079504594486616,-0.852
2.081502197363164,-0.849
2.083499800239712,-0.849
2.08549740311626,-0.847
2.0874950059928086,-0.845
2.0894926088693566,-0.842
2.0914902117459047,-0.843
2.0934878146224527,-0.842
2.095485417499001,-0.833
2.0974830203755492,-0.83
2.0994806232520973,-0.83
2.1014782261286453,-0.824
2.1034758290051934,-0.818
2.105473431881742,-0.819
2.10747103475829,-0.819
2.109468637634838,-0.813
2.111466240511386,-0.812
2.1134638433879345,-0.811
2.1154614462644825,-0.805
2.1174590491410306,-0.801
2.1194566520175786,-0.799
2.1214542548941266,-0.795
2.123451857770675,-0.792
2.125449460647223,-0.795
2.127447063523771,-0.797
2.1294446664003193,-0.795
2.1314422692768678,-0.794
2.133439872153416,-0.794
2.135437475029964,-0.797
2.137435077906512,-0.801
2.13943268078306,-0.803
2.1414302836596084,-0.805
2.1434278865361565,-0.808
2.1454254894127045,-0.806
2.1474230922892525,-0.81
2.149420695165801,-0.816
2.151418298042349,-0.819
2.153415900918897,-0.822
2.155413503795445,-0.824
2.157411106671993,-0.831
2.1594087095485417,-0.836
2.1614063124250897,-0.838
2.163403915301638,-0.845
2.165401518178186,-0.849
2.1673991210547343,-0.852
2.1693967239312824,-0.861
2.1713943268078304,-0.869
2.1733919296843784,-0.877
2.1753895325609265,-0.884
2.177387135437475,-0.893
2.179384738314023,-0.904
2.181382341190571,-0.909
2.183379944067119,-0.91
2.1853775469436676,-0.915
2.1873751498202156,-0.925
2.1893727526967637,-0.933
2.1913703555733117,-0.941
2.1933679584498598,-0.946
2.1953655613264083,-0.951
2.1973631642029563,-0.956
2.1993607670795043,-0.961
2.2013583699560524,-0.971
2.203355972832601,-0.98
2.205353575709149,-0.983
2.207351178585697,-0.985
2.209348781462245,-0.992
2.211346384338793,-0.998
2.2133439872153415,-1.0
2.2153415900918896,-1.006
2.2173391929684376,-1.012
2.2193367958449857,-1.016
2.221334398721534,-1.02
2.223332001598082,-1.022
2.2253296044746302,-1.025
2.2273272073511783,-1.033
2.2293248102277263,-1.039
2.231322413104275,-1.041
2.233320015980823,-1.046
2.235317618857371,-1.048
2.237315221733919,-1.05
2.2393128246104674,-1.052
2.2413104274870155,-1.057
2.2433080303635635,-1.059
2.2453056332401116,-1.06
2.2473032361166596,-1.065
2.249300838993208,-1.069
2.251298441869756,-1.073
2.253296044746304,-1.074
2.2552936476228522,-1.077
2.2572912504994003,-1.08
2.2592888533759488,-1.08
2.261286456252497,-1.083
2.263284059129045,-1.085
2.265281662005593,-1.083
2.2672792648821414,-1.085
2.2692768677586894,-1.087
2.2712744706352375,-1.086
2.2732720735117855,-1.086
2.2752696763883336,-1.085
2.277267279264882,-1.083
2.27926488214143,-1.085
2.281262485017978,-1.085
2.283260087894526,-1.086
2.2852576907710747,-1.087
2.2872552936476227,-1.087
2.2892528965241707,-1.089
2.291250499400719,-1.087
2.293248102277267,-1.086
2.2952457051538153,-1.085
2.2972433080303634,-1.085
2.2992409109069114,-1.089
2.3012385137834594,-1.09
2.303236116660008,-1.091
2.305233719536556,-1.09
2.307231322413104,-1.09
2.309228925289652,-1.091
2.3112265281662,-1.093
2.3132241310427486,-1.093
2.3152217339192966,-1.09
2.3172193367958447,-1.088
2.3192169396723927,-1.086
2.321214542548941,-1.085
2.3232121454254893,-1.083
2.3252097483020373,-1.085
2.3272073511785853,-1.087
2.3292049540551334,-1.086
2.331202556931682,-1.082
2.33320015980823,-1.081
2.335197762684778,-1.085
2.337195365561326,-1.087
2.3391929684378745,-1.089
2.3411905713144225,-1.09
2.3431881741909706,-1.091
2.3451857770675186,-1.089
2.3471833799440667,-1.086
2.349180982820615,-1.083
2.351178585697163,-1.083
2.3531761885737112,-1.085
2.3551737914502593,-1.079
2.357171394326808,-1.077
2.359168997203356,-1.083
2.361166600079904,-1.081
2.363164202956452,-1.085
2.365161805833,-1.095
2.3671594087095484,-1.096
2.3691570115860965,-1.087
2.3711546144626445,-1.089
2.3731522173391926,-1.096
2.375149820215741,-1.095
2.377147423092289,-1.097
2.379145025968837,-1.093
2.381142628845385,-1.09
2.3831402317219332,-1.095
2.3851378345984817,-1.093
2.3871354374750298,-1.093
2.389133040351578,-1.093
2.391130643228126,-1.095
2.3931282461046743,-1.096
2.3951258489812224,-1.094
2.3971234518577704,-1.094
2.3991210547343185,-1.098
2.4011186576108665,-1.1
2.403116260487415,-1.099
2.405113863363963,-1.095
2.407111466240511,-1.097
2.409109069117059,-1.106
2.4111066719936076,-1.106
2.4131042748701557,-1.103
2.4151018777467037,-1.105
2.4170994806232518,-1.103
2.4190970834998,-1.105
2.4210946863763483,-1.105
2.4230922892528963,-1.104
2.4250898921294444,-1.105
2.4270874950059924,-1.105
2.429085097882541,-1.106
2.431082700759089,-1.109
2.433080303635637,-1.11
2.435077906512185,-1.105
2.437075509388733,-1.103
2.4390731122652816,-1.103
2.4410707151418296,-1.104
2.4430683180183776,-1.107
2.4450659208949257,-1.107
2.447063523771474,-1.103
2.4490611266480222,-1.102
2.4510587295245703,-1.107
2.4530563324011183,-1.105
2.4550539352776664,-1.103
2.457051538154215,-1.101
2.459049141030763,-1.099
2.461046743907311,-1.099
2.463044346783859,-1.097
2.4650419496604075,-1.099
2.4670395525369555,-1.097
2.4690371554135035,-1.097
2.4710347582900516,-1.099
2.4730323611665996,-1.101
2.475029964043148,-1.095
2.477027566919696,-1.097
2.479025169796244,-1.103
2.4810227726727923,-1.104
2.4830203755493407,-1.104
2.485017978425889,-1.101
2.487015581302437,-1.103
2.489013184178985,-1.105
2.491010787055533,-1.103
2.4930083899320814,-1.103
2.4950059928086294,-1.105
2.4970035956851775,-1.105
2.4990011985617255,-1.107
2.500998801438274,-1.109
2.502996404314822,-1.108
2.50499400719137,-1.107
2.506991610067918,-1.109
2.508989212944466,-1.109
2.5109868158210147,-1.111
2.5129844186975627,-1.111
2.5149820215741108,-1.107
2.516979624450659,-1.109
2.5189772273272073,-1.111
2.5209748302037553,-1.111
2.5229724330803034,-1.111
2.5249700359568514,-1.113
2.5269676388333995,-1.115
2.528965241709948,-1.115
2.530962844586496,-1.113
2.532960447463044,-1.115
2.534958050339592,-1.115
2.5369556532161406,-1.118
2.5389532560926886,-1.123
2.5409508589692367,-1.121
2.5429484618457847,-1.122
2.5449460647223328,-1.124
2.5469436675988812,-1.123
2.5489412704754293,-1.122
2.5509388733519773,-1.121
2.5529364762285254,-1.121
2.554934079105074,-1.118
2.556931681981622,-1.115
2.55892928485817,-1.114
2.560926887734718,-1.117
2.562924490611266,-1.119
2.5649220934878145,-1.12
2.5669196963643626,-1.127
2.5689172992409106,-1.123
2.5709149021174587,-1.118
2.572912504994007,-1.117
2.574910107870555,-1.121
2.5769077107471032,-1.125
2.5789053136236513,-1.123
2.5809029165001993,-1.123
2.582900519376748,-1.125
2.584898122253296,-1.126
2.586895725129844,-1.126
2.588893328006392,-1.128
2.5908909308829404,-1.127
2.5928885337594885,-1.125
2.5948861366360365,-1.123
2.5968837395125846,-1.125
2.5988813423891326,-1.123
2.600878945265681,-1.123
2.602876548142229,-1.124
2.604874151018777,-1.125
2.606871753895325,-1.128
2.6088693567718737,-1.131
2.6108669596484217,-1.132
2.61286456252497,-1.129
2.614862165401518,-1.126
2.616859768278066,-1.127
2.6188573711546144,-1.127
2.6208549740311624,-1.131
2.6228525769077105,-1.131
2.6248501797842585,-1.127
2.626847782660807,-1.131
2.628845385537355,-1.133
2.630842988413903,-1.133
2.632840591290451,-1.133
2.634838194166999,-1.129
2.6368357970435476,-1.127
2.6388333999200957,-1.126
2.6408310027966437,-1.125
2.6428286056731918,-1.121
2.6448262085497403,-1.121
2.6468238114262883,-1.119
2.6488214143028364,-1.123
2.6508190171793844,-1.123
2.6528166200559324,-1.119
2.654814222932481,-1.121
2.656811825809029,-1.123
2.658809428685577,-1.123
2.660807031562125,-1.121
2.662804634438673,-1.13
2.6648022373152216,-1.141
2.6667998401917696,-1.141
2.6687974430683177,-1.136
2.6707950459448657,-1.133
2.672792648821414,-1.133
2.6747902516979623,-1.128
2.6767878545745103,-1.125
2.6787854574510583,-1.127
2.6807830603276064,-1.126
2.682780663204155,-1.123
2.684778266080703,-1.125
2.686775868957251,-1.123
2.688773471833799,-1.127
2.6907710747103475,-1.126
2.6927686775868955,-1.126
2.6947662804634436,-1.131
2.6967638833399916,-1.129
2.6987614862165397,-1.129
2.700759089093088,-1.131
2.702756691969636,-1.133
2.7047542948461842,-1.131
2.7067518977227323,-1.134
2.7087495005992808,-1.135
2.710747103475829,-1.137
2.712744706352377,-1.141
2.714742309228925,-1.136
2.716739912105473,-1.134
2.7187375149820214,-1.137
2.7207351178585695,-1.137
2.7227327207351175,-1.138
2.7247303236116656,-1.141
2.726727926488214,-1.141
2.728725529364762,-1.139
2.73072313224131,-1.136
2.732720735117858,-1.139
2.7347183379944062,-1.143
2.7367159408709547,-1.142
2.7387135437475028,-1.135
2.740711146624051,-1.131
2.742708749500599,-1.129
2.7447063523771473,-1.128
2.7467039552536954,-1.131
2.7487015581302434,-1.132
2.7506991610067915,-1.128
2.7526967638833395,-1.129
2.754694366759888,-1.133
2.756691969636436,-1.135
2.758689572512984,-1.135
2.760687175389532,-1.135
2.7626847782660806,-1.138
2.7646823811426287,-1.137
2.7666799840191767,-1.133
2.7686775868957247,-1.131
2.770675189772273,-1.131
2.7726727926488213,-1.131
2.7746703955253693,-1.135
2.7766679984019174,-1.139
2.7786656012784654,-1.139
2.780663204155014,-1.139
2.782660807031562,-1.136
2.78465840990811,-1.133
2.786656012784658,-1.133
2.788653615661206,-1.135
2.7906512185377546,-1.137
2.7926488214143026,-1.141
2.7946464242908506,-1.141
2.7966440271673987,-1.139
2.798641630043947,-1.143
2.800639232920495,-1.141
2.8026368357970433,-1.14
2.8046344386735913,-1.139
2.8066320415501393,-1.139
2.808629644426688,-1.143
2.810627247303236,-1.145
2.812624850179784,-1.143
2.814622453056332,-1.143
2.8166200559328805,-1.144
2.8186176588094285,-1.143
2.8206152616859765,-1.141
2.8226128645625246,-1.141
2.8246104674390726,-1.141
2.826608070315621,-1.137
2.828605673192169,-1.139
2.830603276068717,-1.139
2.8326008789452652,-1.143
2.8345984818218137,-1.141
2.8365960846983618,-1.137
2.83859368757491,-1.136
2.840591290451458,-1.135
2.842588893328006,-1.137
2.8445864962045544,-1.138
2.8465840990811024,-1.139
2.8485817019576505,-1.139
2.8505793048341985,-1.139
2.852576907710747,-1.137
2.854574510587295,-1.138
2.856572113463843,-1.142
2.858569716340391,-1.143
2.860567319216939,-1.14
2.8625649220934877,-1.139
2.8645625249700357,-1.135
2.8665601278465838,-1.132
2.868557730723132,-1.139
2.8705553335996803,-1.139
2.8725529364762283,-1.139
2.8745505393527764,-1.139
2.8765481422293244,-1.137
2.8785457451058725,-1.134
2.880543347982421,-1.132
2.882540950858969,-1.135
2.884538553735517,-1.139
2.886536156612065,-1.14
2.8885337594886136,-1.139
2.8905313623651616,-1.141
2.8925289652417097,-1.143
2.8945265681182577,-1.141
2.8965241709948057,-1.143
2.8985217738713542,-1.145
2.9005193767479023,-1.144
2.9025169796244503,-1.143
2.9045145825009984,-1.142
2.906512185377547,-1.143
2.908509788254095,-1.147
2.910507391130643,-1.149
2.912504994007191,-1.147
2.914502596883739,-1.145
2.9165001997602875,-1.144
2.9184978026368356,-1.147
2.9204954055133836,-1.149
2.9224930083899316,-1.147
2.92449061126648,-1.143
2.926488214143028,-1.139
2.928485817019576,-1.143
2.9304834198961243,-1.145
2.9324810227726723,-1.141
2.934478625649221,-1.145
2.936476228525769,-1.149
2.938473831402317,-1.147
2.940471434278865,-1.145
2.9424690371554134,-1.145
2.9444666400319615,-1.143
2.9464642429085095,-1.143
2.9484618457850575,-1.148
2.9504594486616056,-1.152
2.952457051538154,-1.153
2.954454654414702,-1.151
2.95645225729125,-1.151
2.958449860167798,-1.154
2.9604474630443467,-1.155
2.9624450659208947,-1.155
2.964442668797443,-1.155
2.966440271673991,-1.155
2.968437874550539,-1.155
2.9704354774270874,-1.152
2.9724330803036354,-1.153
2.9744306831801834,-1.159
2.9764282860567315,-1.159
2.97842588893328,-1.157
2.980423491809828,-1.158
2.982421094686376,-1.158
2.984418697562924,-1.161
2.986416300439472,-1.159
2.9884139033160206,-1.153
2.9904115061925687,-1.159
2.9924091090691167,-1.161
2.9944067119456648,-1.157
2.9964043148222133,-1.155
2.9984019176987613,-1.153
3.0003995205753093,-1.153
3.0023971234518574,-1.154
3.0043947263284054,-1.157
3.006392329204954,-1.157
3.008389932081502,-1.155
3.01038753495805,-1.156
3.012385137834598,-1.155
3.0143827407111465,-1.156
3.0163803435876946,-1.156
3.0183779464642426,-1.151
3.0203755493407907,-1.149
3.0223731522173387,-1.145
3.024370755093887,-1.139
3.0263683579704352,-1.137
3.0283659608469833,-1.134
3.0303635637235313,-1.133
3.03236116660008,-1.132
3.034358769476628,-1.127
3.036356372353176,-1.131
3.038353975229724,-1.135
3.040351578106272,-1.124
3.0423491809828205,-1.121
3.0443467838593685,-1.117
3.0463443867359166,-1.113
3.0483419896124646,-1.107
3.050339592489013,-1.101
3.052337195365561,-1.101
3.054334798242109,-1.104
3.0563324011186572,-1.103
3.0583300039952053,-1.097
3.0603276068717538,-1.093
3.062325209748302,-1.092
3.06432281262485,-1.091
3.066320415501398,-1.088
3.068318018377946,-1.091
3.0703156212544944,-1.093
3.0723132241310425,-1.091
3.0743108270075905,-1.086
3.0763084298841386,-1.083
3.078306032760687,-1.083
3.080303635637235,-1.083
3.082301238513783,-1.083
3.084298841390331,-1.081
3.086296444266879,-1.081
3.0882940471434277,-1.078
3.0902916500199757,-1.077
3.092289252896524,-1.073
3.094286855773072,-1.07
3.0962844586496203,-1.069
3.0982820615261684,-1.062
3.1002796644027164,-1.054
3.1022772672792644,-1.046
3.1042748701558125,-1.04
3.106272473032361,-1.032
3.108270075908909,-1.032
3.110267678785457,-1.031
3.112265281662005,-1.024
3.1142628845385536,-1.016
3.1162604874151016,-1.01
3.1182580902916497,-1.006
3.1202556931681977,-1.004
3.1222532960447458,-1.001
3.1242508989212943,-1.006
3.1262485017978423,-1.008
3.1282461046743903,-1.013
3.1302437075509384,-1.018
3.132241310427487,-1.014
3.134238913304035,-1.017
3.136236516180583,-1.018
3.138234119057131,-1.022
3.140231721933679,-1.026
3.1422293248102275,-1.026
3.1442269276867756,-1.029
3.1462245305633236,-1.032
3.1482221334398717,-1.038
3.15021973631642,-1.042
3.152217339192968,-1.04
3.1542149420695162,-1.038
3.1562125449460643,-1.037
3.1582101478226123,-1.038
3.160207750699161,-1.042
3.162205353575709,-1.044
3.164202956452257,-1.046
3.166200559328805,-1.05
3.1681981622053534,-1.053
3.1701957650819015,-1.056
3.1721933679584495,-1.056
3.1741909708349976,-1.06
3.1761885737115456,-1.067
3.178186176588094,-1.071
3.180183779464642,-1.067
3.18218138234119,-1.069
3.1841789852177382,-1.075
3.1861765880942867,-1.074
3.1881741909708348,-1.077
3.190171793847383,-1.078
3.192169396723931,-1.081
3.194166999600479,-1.083
3.1961646024770274,-1.077
3.1981622053535754,-1.073
3.2001598082301235,-1.075
3.2021574111066715,-1.083
3.20415501398322,-1.089
3.206152616859768,-1.094
3.208150219736316,-1.1
3.210147822612864,-1.104
3.212145425489412,-1.109
3.2141430283659607,-1.117
3.2161406312425087,-1.121
3.2181382341190568,-1.129
3.220135836995605,-1.131
3.2221334398721533,-1.129
3.2241310427487013,-1.125
3.2261286456252494,-1.126
3.2281262485017974,-1.131
3.2301238513783455,-1.132
3.232121454254894,-1.139
3.234119057131442,-1.145
3.23611666000799,-1.143
3.238114262884538,-1.145
3.2401118657610866,-1.151
3.2421094686376346,-1.156
3.2441070715141826,-1.16
3.2461046743907307,-1.162
3.2481022772672787,-1.161
3.2500998801438272,-1.163
3.2520974830203753,-1.165
3.2540950858969233,-1.165
3.2560926887734714,-1.168
3.25809029165002,-1.173
3.260087894526568,-1.18
3.262085497403116,-1.18
3.264083100279664,-1.18
3.266080703156212,-1.181
3.2680783060327605,-1.18
3.2700759089093085,-1.179
3.2720735117858566,-1.186
3.2740711146624046,-1.19
3.276068717538953,-1.185
3.278066320415501,-1.184
3.280063923292049,-1.185
3.2820615261685973,-1.188
3.2840591290451453,-1.185
3.286056731921694,-1.184
3.288054334798242,-1.19
3.29005193767479,-1.191
3.292049540551338,-1.193
3.2940471434278864,-1.194
3.2960447463044344,-1.192
3.2980423491809825,-1.191
3.3000399520575305,-1.193
3.3020375549340786,-1.19
3.304035157810627,-1.187
3.306032760687175,-1.188
3.308030363563723,-1.19
3.310027966440271,-1.19
3.3120255693168197,-1.188
3.3140231721933677,-1.186
3.3160207750699158,-1.184
3.318018377946464,-1.183
3.320015980823012,-1.184
3.3220135836995603,-1.188
3.3240111865761084,-1.194
3.3260087894526564,-1.195
3.3280063923292045,-1.196
3.330003995205753,-1.204
3.332001598082301,-1.212
3.333999200958849,-1.222
3.335996803835397,-1.235
3.337994406711945,-1.241
3.3399920095884936,-1.244
3.3419896124650417,-1.249
3.3439872153415897,-1.244
3.3459848182181378,-1.23
3.3479824210946862,-1.223
3.3499800239712343,-1.214
3.3519776268477823,-1.192
3.3539752297243304,-1.163
3.3559728326008784,-1.139
3.357970435477427,-1.12
3.359968038353975,-1.1
3.361965641230523,-1.083
3.363963244107071,-1.066
3.3659608469836195,-1.041
3.3679584498601676,-1.019
3.3699560527367156,-0.992
3.3719536556132637,-0.96
3.3739512584898117,-0.927
3.37594886136636,-0.871
3.3779464642429082,-0.793
3.3799440671194563,-0.709
3.3819416699960043,-0.621
3.383939272872553,-0.541
3.385936875749101,-0.48
3.387934478625649,-0.424
3.389932081502197,-0.374
3.391929684378745,-0.324
3.3939272872552935,-0.264
3.3959248901318415,-0.208
3.3979224930083896,-0.171
3.3999200958849376,-0.155
3.401917698761486,-0.143
3.403915301638034,-0.118
3.405912904514582,-0.092
3.40791050739113,-0.081
3.4099081102676783,-0.07
3.4119057131442267,-0.056
3.413903316020775,-0.062
3.415900918897323,-0.071
3.417898521773871,-0.073
3.4198961246504194,-0.08
3.4218937275269674,-0.088
3.4238913304035155,-0.102
3.4258889332800635,-0.109
3.4278865361566115,-0.119
3.42988413903316,-0.141
3.431881741909708,-0.161
3.433879344786256,-0.185
3.435876947662804,-0.224
3.4378745505393526,-0.266
3.4398721534159007,-0.308
3.4418697562924487,-0.366
3.4438673591689968,-0.431
3.445864962045545,-0.495
3.4478625649220933,-0.549
3.4498601677986414,-0.592
3.4518577706751894,-0.616
3.4538553735517374,-0.64
3.455852976428286,-0.666
3.457850579304834,-0.692
3.459848182181382,-0.722
3.46184578505793,-0.747
3.463843387934478,-0.775
3.4658409908110266,-0.81
3.4678385936875746,-0.852
3.4698361965641227,-0.884
3.4718337994406707,-0.905
3.473831402317219,-0.922
3.4758290051937673,-0.93
3.4778266080703153,-0.943
3.4798242109468633,-0.965
3.4818218138234114,-0.989
3.48381941669996,-1.005
3.485817019576508,-1.014
3.487814622453056,-1.026
3.489812225329604,-1.039
3.491809828206152,-1.051
3.4938074310827005,-1.065
3.4958050339592486,-1.076
3.4978026368357966,-1.082
3.4998002397123447,-1.089
3.501797842588893,-1.096
3.503795445465441,-1.099
3.5057930483419892,-1.103
3.5077906512185373,-1.106
3.5097882540950853,-1.11
3.511785856971634,-1.115
3.513783459848182,-1.117
3.51578106272473,-1.116
3.517778665601278,-1.114
3.5197762684778264,-1.119
3.5217738713543745,-1.126
3.5237714742309225,-1.131
3.5257690771074706,-1.133
3.5277666799840186,-1.13
3.529764282860567,-1.127
3.531761885737115,-1.128
3.533759488613663,-1.133
3.5357570914902112,-1.139
3.5377546943667597,-1.141
3.5397522972433078,-1.142
3.541749900119856,-1.142
3.543747502996404,-1.145
3.545745105872952,-1.145
3.5477427087495004,-1.149
3.5497403116260484,-1.153
3.5517379145025965,-1.151
3.5537355173791445,-1.151
3.555733120255693,-1.152
3.557730723132241,-1.152
3.559728326008789,-1.151
3.561725928885337,-1.152
3.563723531761885,-1.153
3.5657211346384337,-1.151
3.5677187375149817,-1.15
3.5697163403915297,-1.152
3.571713943268078,-1.153
3.5737115461446263,-1.152
3.5757091490211743,-1.151
3.5777067518977224,-1.148
3.5797043547742704,-1.145
3.5817019576508184,-1.147
3.583699560527367,-1.151
3.585697163403915,-1.154
3.587694766280463,-1.148
3.589692369157011,-1.146
3.5916899720335596,-1.154
3.5936875749101076,-1.155
3.5956851777866556,-1.151
3.5976827806632037,-1.145
3.5996803835397517,-1.143
3.6016779864163,-1.151
3.6036755892928483,-1.151
3.6056731921693963,-1.148
3.6076707950459443,-1.151
3.609668397922493,-1.153
3.611666000799041,-1.155
3.613663603675589,-1.154
3.615661206552137,-1.154
3.617658809428685,-1.153
3.6196564123052335,-1.151
3.6216540151817815,-1.151
3.6236516180583296,-1.149
3.6256492209348776,-1.149
3.627646823811426,-1.149
3.629644426687974,-1.145
3.631642029564522,-1.145
3.6336396324410702,-1.143
3.6356372353176183,-1.142
3.6376348381941668,-1.141
3.639632441070715,-1.139
3.641630043947263,-1.14
3.643627646823811,-1.139
3.6456252497003594,-1.137
3.6476228525769074,-1.137
3.6496204554534555,-1.137
3.6516180583300035,-1.133
3.6536156612065516,-1.135
3.6556132640831,-1.137
3.657610866959648,-1.135
3.659608469836196,-1.135
3.661606072712744,-1.137
3.6636036755892927,-1.137
3.6656012784658407,-1.133
3.6675988813423888,-1.129
3.669596484218937,-1.129
3.671594087095485,-1.131
3.6735916899720333,-1.127
3.6755892928485814,-1.127
3.6775868957251294,-1.127
3.6795844986016775,-1.125
3.681582101478226,-1.125
3.683579704354774,-1.125
3.685577307231322,-1.124
3.68757491010787,-1.121
3.689572512984418,-1.119
3.6915701158609666,-1.116
3.6935677187375147,-1.112
3.6955653216140627,-1.116
3.6975629244906107,-1.119
3.6995605273671592,-1.118
3.7015581302437073,-1.115
3.7035557331202553,-1.111
3.7055533359968034,-1.112
3.7075509388733514,-1.111
3.7095485417499,-1.108
3.711546144626448,-1.105
3.713543747502996,-1.101
3.715541350379544,-1.097
3.7175389532560925,-1.097
3.7195365561326406,-1.1
3.7215341590091886,-1.107
3.7235317618857366,-1.109
3.7255293647622847,-1.104
3.727526967638833,-1.1
3.729524570515381,-1.099
3.7315221733919293,-1.097
3.7335197762684773,-1.097
3.735517379145026,-1.097
3.737514982021574,-1.093
3.739512584898122,-1.093
3.74151018777467,-1.094
3.743507790651218,-1.093
3.7455053935277665,-1.091
3.7475029964043145,-1.09
3.7495005992808625,-1.087
3.7514982021574106,-1.085
3.753495805033959,-1.083
3.755493407910507,-1.079
3.757491010787055,-1.077
3.759488613663603,-1.073
3.7614862165401513,-1.073
3.7634838194166997,-1.073
3.765481422293248,-1.075
3.767479025169796,-1.074
3.769476628046344,-1.069
3.7714742309228924,-1.065
3.7734718337994404,-1.068
3.7754694366759884,-1.069
3.7774670395525365,-1.066
3.7794646424290845,-1.067
3.781462245305633,-1.06
3.783459848182181,-1.056
3.785457451058729,-1.054
3.787455053935277,-1.053
3.7894526568118256,-1.052
3.7914502596883737,-1.048
3.7934478625649217,-1.046
3.7954454654414698,-1.042
3.797443068318018,-1.039
3.7994406711945663,-1.033
3.8014382740711143,-1.03
3.8034358769476624,-1.029
3.8054334798242104,-1.03
3.807431082700759,-1.028
3.809428685577307,-1.023
3.811426288453855,-1.021
3.813423891330403,-1.016
3.815421494206951,-1.018
3.8174190970834996,-1.018
3.8194166999600476,-1.01
3.8214143028365957,-1.006
3.8234119057131437,-1.002
3.825409508589692,-0.994
3.8274071114662402,-0.996
3.8294047143427883,-0.999
3.8314023172193363,-0.99
3.8333999200958844,-0.986
3.835397522972433,-0.984
3.837395125848981,-0.978
3.839392728725529,-0.973
3.841390331602077,-0.971
3.8433879344786255,-0.97
3.8453855373551735,-0.964
3.8473831402317216,-0.958
3.8493807431082696,-0.954
3.8513783459848177,-0.949
3.853375948861366,-0.945
3.855373551737914,-0.938
3.8573711546144622,-0.933
3.8593687574910103,-0.929
3.8613663603675588,-0.921
3.863363963244107,-0.916
3.865361566120655,-0.913
3.867359168997203,-0.915
3.869356771873751,-0.912
3.8713543747502994,-0.905
3.8733519776268475,-0.9
3.8753495805033955,-0.893
3.8773471833799436,-0.889
3.879344786256492,-0.883
3.88134238913304,-0.875
3.883339992009588,-0.871
3.885337594886136,-0.871
3.887335197762684,-0.868
3.8893328006392327,-0.862
3.8913304035157807,-0.86
3.893328006392329,-0.859
3.895325609268877,-0.856
3.897323212145425,-0.853
3.8993208150219734,-0.851
3.9013184178985214,-0.847
3.9033160207750695,-0.842
3.9053136236516175,-0.832
3.907311226528166,-0.826
3.909308829404714,-0.823
3.911306432281262,-0.822
3.91330403515781,-0.819
3.915301638034358,-0.815
3.9172992409109066,-0.814
3.9192968437874547,-0.809
3.9212944466640027,-0.807
3.9232920495405508,-0.805
3.9252896524170993,-0.8
3.9272872552936473,-0.799
3.9292848581701953,-0.801
3.9312824610467434,-0.801
3.9332800639232914,-0.796
3.93527766679984,-0.791
3.937275269676388,-0.792
3.939272872552936,-0.787
3.941270475429484,-0.783
3.9432680783060325,-0.785
3.9452656811825806,-0.783
3.9472632840591286,-0.78
3.9492608869356767,-0.781
3.9512584898122247,-0.784
3.953256092688773,-0.785
3.9552536955653212,-0.785
3.9572512984418693,-0.786
3.9592489013184173,-0.786
3.961246504194966,-0.787
3.963244107071514,-0.792
3.965241709948062,-0.798
3.96723931282461,-0.802
3.969236915701158,-0.806
3.9712345185777065,-0.811
3.9732321214542545,-0.821
3.9752297243308026,-0.826
3.9772273272073506,-0.83
3.979224930083899,-0.837
3.981222532960447,-0.841
3.983220135836995,-0.844
3.9852177387135432,-0.848
3.9872153415900913,-0.856
3.9892129444666398,-0.864
3.991210547343188,-0.87
3.993208150219736,-0.876
3.995205753096284,-0.881
3.9972033559728324,-0.886
3.9992009588493804,-0.893
4.0011985617259285,-0.899
4.0031961646024765,-0.908
4.005193767479025,-0.913
4.007191370355573,-0.921
4.009188973232121,-0.929
4.01118657610867,-0.933
4.013184178985218,-0.942
4.015181781861766,-0.95
4.017179384738314,-0.957
4.019176987614862,-0.962
4.02117459049141,-0.964
4.023172193367958,-0.971
4.025169796244506,-0.979
4.027167399121054,-0.98
4.029165001997603,-0.987
4.031162604874151,-0.992
4.033160207750699,-0.995
4.035157810627247,-0.999
4.037155413503795,-0.999
4.039153016380343,-1.006
4.041150619256891,-1.008
4.043148222133439,-1.012
4.045145825009987,-1.022
4.047143427886536,-1.026
4.049141030763084,-1.029
4.051138633639632,-1.032
4.05313623651618,-1.04
4.055133839392728,-1.044
4.057131442269276,-1.048
4.059129045145824,-1.054
4.061126648022372,-1.054
4.0631242508989205,-1.058
4.065121853775469,-1.062
4.0671194566520175,-1.063
4.0691170595285655,-1.067
4.0711146624051135,-1.069
4.073112265281662,-1.069
4.07510986815821,-1.071
4.077107471034758,-1.073
4.079105073911306,-1.073
4.081102676787854,-1.073
4.083100279664403,-1.073
4.085097882540951,-1.071
4.087095485417499,-1.069
4.089093088294047,-1.073
4.091090691170595,-1.075
4.093088294047143,-1.074
4.095085896923691,-1.075
4.097083499800239,-1.078
4.099081102676787,-1.081
4.101078705553336,-1.079
4.103076308429884,-1.081
4.105073911306432,-1.081
4.10707151418298,-1.079
4.109069117059528,-1.077
4.111066719936076,-1.079
4.113064322812624,-1.083
4.115061925689172,-1.083
4.11705952856572,-1.083
4.119057131442269,-1.083
4.121054734318817,-1.083
4.123052337195365,-1.085
4.125049940071913,-1.085
4.127047542948461,-1.081
4.1290451458250095,-1.081
4.1310427487015575,-1.082
4.133040351578106,-1.082
4.135037954454654,-1.086
4.1370355573312025,-1.087
4.139033160207751,-1.085
4.141030763084299,-1.083
4.143028365960847,-1.089
4.145025968837395,-1.091
4.147023571713943,-1.091
4.149021174590491,-1.092
4.151018777467039,-1.091
4.153016380343587,-1.089
4.155013983220136,-1.085
4.157011586096684,-1.084
4.159009188973232,-1.088
4.16100679184978,-1.089
4.163004394726328,-1.089
4.165001997602876,-1.093
4.166999600479424,-1.093
4.168997203355972,-1.085
4.17099480623252,-1.083
4.172992409109069,-1.083
4.174990011985617,-1.085
4.176987614862165,-1.085
4.178985217738713,-1.085
4.180982820615261,-1.089
4.182980423491809,-1.087
4.184978026368357,-1.087
4.186975629244905,-1.085
4.1889732321214534,-1.085
4.190970834998002,-1.087
4.19296843787455,-1.09
4.1949660407510985,-1.088
4.1969636436276465,-1.086
4.1989612465041946,-1.087
4.200958849380743,-1.087
4.202956452257291,-1.091
4.204954055133839,-1.093
4.206951658010387,-1.094
4.208949260886936,-1.093
4.210946863763484,-1.092
4.212944466640032,-1.095
4.21494206951658,-1.095
4.216939672393128,-1.09
4.218937275269676,-1.087
4.220934878146224,-1.083
4.222932481022772,-1.079
4.22493008389932,-1.077
4.226927686775869,-1.08
4.228925289652417,-1.085
4.230922892528965,-1.085
4.232920495405513,-1.08
4.234918098282061,-1.081
4.236915701158609,-1.082
4.238913304035157,-1.079
4.240910906911705,-1.084
4.242908509788253,-1.085
4.244906112664802,-1.082
4.24690371554135,-1.082
4.248901318417898,-1.085
4.250898921294446,-1.085
4.252896524170994,-1.082
4.254894127047542,-1.086
4.2568917299240905,-1.087
4.2588893328006385,-1.086
4.260886935677187,-1.089
4.2628845385537355,-1.089
4.2648821414302835,-1.087
4.266879744306832,-1.091
4.26887734718338,-1.091
4.270874950059928,-1.091
4.272872552936476,-1.089
4.274870155813024,-1.088
4.276867758689572,-1.086
4.27886536156612,-1.087
4.280862964442669,-1.087
4.282860567319217,-1.089
4.284858170195765,-1.093
4.286855773072313,-1.093
4.288853375948861,-1.093
4.290850978825409,-1.093
4.292848581701957,-1.094
4.294846184578505,-1.091
4.296843787455053,-1.092
4.298841390331602,-1.094
4.30083899320815,-1.089
4.302836596084698,-1.089
4.304834198961246,-1.091
4.306831801837794,-1.096
4.308829404714342,-1.097
4.31082700759089,-1.099
4.312824610467438,-1.101
4.314822213343986,-1.095
4.316819816220535,-1.088
4.318817419097083,-1.089
4.320815021973631,-1.091
4.3228126248501795,-1.09
4.3248102277267275,-1.093
4.326807830603276,-1.095
4.328805433479824,-1.097
4.330803036356372,-1.093
4.33280063923292,-1.095
4.334798242109469,-1.1
4.336795844986017,-1.098
4.338793447862565,-1.097
4.340791050739113,-1.097
4.342788653615661,-1.097
4.344786256492209,-1.101
4.346783859368757,-1.106
4.348781462245305,-1.106
4.350779065121853,-1.107
4.352776667998402,-1.105
4.35477427087495,-1.101
4.356771873751498,-1.095
4.358769476628046,-1.095
4.360767079504594,-1.103
4.362764682381142,-1.107
4.36476228525769,-1.107
4.366759888134238,-1.107
4.368757491010786,-1.107
4.370755093887335,-1.109
4.372752696763883,-1.113
4.374750299640431,-1.112
4.376747902516979,-1.11
4.378745505393527,-1.11
4.380743108270075,-1.109
4.3827407111466234,-1.114
4.3847383140231715,-1.115
4.3867359168997195,-1.112
4.3887335197762685,-1.111
4.3907311226528165,-1.113
4.3927287255293646,-1.115
4.394726328405913,-1.114
4.396723931282461,-1.115
4.398721534159009,-1.113
4.400719137035557,-1.113
4.402716739912105,-1.116
4.404714342788653,-1.119
4.406711945665202,-1.121
4.40870954854175,-1.121
4.410707151418298,-1.119
4.412704754294846,-1.121
4.414702357171394,-1.121
4.416699960047942,-1.121
4.41869756292449,-1.121
4.420695165801038,-1.121
4.422692768677586,-1.125
4.424690371554135,-1.121
4.426687974430683,-1.121
4.428685577307231,-1.123
4.430683180183779,-1.121
4.432680783060327,-1.123
4.434678385936875,-1.123
4.436675988813423,-1.127
4.438673591689971,-1.127
4.440671194566519,-1.126
4.442668797443068,-1.128
4.444666400319616,-1.127
4.446664003196164,-1.124
4.448661606072712,-1.121
4.4506592089492605,-1.124
4.4526568118258085,-1.125
4.454654414702357,-1.126
4.456652017578905,-1.128
4.458649620455453,-1.127
4.460647223332002,-1.13
4.46264482620855,-1.131
4.464642429085098,-1.133
4.466640031961646,-1.133
4.468637634838194,-1.131
4.470635237714742,-1.131
4.47263284059129,-1.128
4.474630443467838,-1.128
4.476628046344386,-1.128
4.478625649220935,-1.128
4.480623252097483,-1.129
4.482620854974031,-1.131
4.484618457850579,-1.133
4.486616060727127,-1.131
4.488613663603675,-1.127
4.490611266480223,-1.133
4.492608869356771,-1.135
4.494606472233319,-1.137
4.496604075109868,-1.143
4.498601677986416,-1.145
4.500599280862964,-1.147
4.502596883739512,-1.145
4.50459448661606,-1.143
4.506592089492608,-1.145
4.508589692369156,-1.14
4.5105872952457045,-1.145
4.5125848981222525,-1.149
4.5145825009988005,-1.141
4.5165801038753495,-1.139
4.5185777067518975,-1.14
4.520575309628446,-1.139
4.522572912504994,-1.141
4.524570515381542,-1.141
4.52656811825809,-1.138
4.528565721134638,-1.139
4.530563324011186,-1.139
4.532560926887734,-1.143
4.534558529764283,-1.152
4.536556132640831,-1.154
4.538553735517379,-1.152
4.540551338393927,-1.151
4.542548941270475,-1.144
4.544546544147023,-1.137
4.546544147023571,-1.141
4.548541749900119,-1.151
4.550539352776667,-1.155
4.552536955653216,-1.15
4.554534558529764,-1.145
4.556532161406312,-1.145
4.55852976428286,-1.144
4.560527367159408,-1.147
4.562524970035956,-1.148
4.564522572912504,-1.147
4.566520175789052,-1.143
4.5685177786656,-1.143
4.570515381542149,-1.143
4.572512984418697,-1.141
4.574510587295245,-1.147
4.5765081901717934,-1.149
4.5785057930483415,-1.147
4.5805033959248895,-1.145
4.582500998801438,-1.143
4.584498601677986,-1.145
4.586496204554534,-1.145
4.588493807431083,-1.145
4.590491410307631,-1.147
4.592489013184179,-1.149
4.594486616060727,-1.148
4.596484218937275,-1.149
4.598481821813823,-1.149
4.600479424690371,-1.149
4.602477027566919,-1.151
4.604474630443467,-1.149
4.606472233320016,-1.148
4.608469836196564,-1.145
4.610467439073112,-1.143
4.61246504194966,-1.147
4.614462644826208,-1.147
4.616460247702756,-1.145
4.618457850579304,-1.145
4.620455453455852,-1.139
4.6224530563324,-1.135
4.624450659208949,-1.139
4.626448262085497,-1.143
4.628445864962045,-1.145
4.630443467838593,-1.151
4.632441070715141,-1.153
4.634438673591689,-1.149
4.636436276468237,-1.149
4.6384338793447855,-1.149
4.6404314822213335,-1.145
4.642429085097882,-1.145
4.6444266879744305,-1.144
4.6464242908509785,-1.142
4.648421893727527,-1.143
4.650419496604075,-1.148
4.652417099480623,-1.151
4.654414702357171,-1.15
4.656412305233719,-1.149
4.658409908110267,-1.151
4.660407510986816,-1.154
4.662405113863364,-1.153
4.664402716739912,-1.153
4.66640031961646,-1.155
4.668397922493008,-1.155
4.670395525369556,-1.154
4.672393128246104,-1.153
4.674390731122652,-1.153
4.6763883339992,-1.151
4.678385936875749,-1.15
4.680383539752297,-1.153
4.682381142628845,-1.153
4.684378745505393,-1.149
4.686376348381941,-1.149
4.688373951258489,-1.154
4.690371554135037,-1.153
4.692369157011585,-1.153
4.694366759888133,-1.157
4.696364362764682,-1.163
4.69836196564123,-1.159
4.700359568517778,-1.148
4.702357171394326,-1.141
4.7043547742708745,-1.146
4.7063523771474225,-1.147
4.7083499800239705,-1.145
4.710347582900519,-1.146
4.712345185777067,-1.149
4.714342788653616,-1.151
4.716340391530164,-1.149
4.718337994406712,-1.147
4.72033559728326,-1.145
4.722333200159808,-1.143
4.724330803036356,-1.145
4.726328405912904,-1.143
4.728326008789452,-1.145
4.730323611666,-1.149
4.732321214542549,-1.149
4.734318817419097,-1.149
4.736316420295645,-1.151
4.738314023172193,-1.155
4.740311626048741,-1.153
4.742309228925289,-1.152
4.744306831801837,-1.153
4.746304434678385,-1.152
4.748302037554933,-1.153
4.750299640431482,-1.155
4.75229724330803,-1.156
4.754294846184578,-1.155
4.756292449061126,-1.153
4.758290051937674,-1.151
4.760287654814222,-1.148
4.76228525769077,-1.149
4.764282860567318,-1.151
4.7662804634438665,-1.15
4.768278066320415,-1.152
4.770275669196963,-1.153
4.7722732720735115,-1.152
4.7742708749500595,-1.155
4.776268477826608,-1.159
4.778266080703156,-1.159
4.780263683579704,-1.157
4.782261286456252,-1.153
4.7842588893328,-1.151
4.786256492209349,-1.151
4.788254095085897,-1.152
4.790251697962445,-1.152
4.792249300838993,-1.153
4.794246903715541,-1.154
4.796244506592089,-1.157
4.798242109468637,-1.153
4.800239712345185,-1.153
4.802237315221733,-1.158
4.804234918098282,-1.159
4.80623252097483,-1.157
4.808230123851378,-1.153
4.810227726727926,-1.153
4.812225329604474,-1.157
4.814222932481022,-1.159
4.81622053535757,-1.16
4.818218138234118,-1.157
4.820215741110666,-1.153
4.822213343987215,-1.155
4.824210946863763,-1.157
4.826208549740311,-1.155
4.828206152616859,-1.155
4.830203755493407,-1.16
4.8322013583699555,-1.159
4.8341989612465035,-1.157
4.8361965641230515,-1.159
4.8381941669996,-1.155
4.8401917698761485,-1.156
4.842189372752697,-1.152
4.844186975629245,-1.151
4.846184578505793,-1.151
4.848182181382341,-1.145
4.850179784258889,-1.144
4.852177387135437,-1.144
4.854174990011985,-1.148
4.856172592888533,-1.147
4.858170195765082,-1.143
4.86016779864163,-1.143
4.862165401518178,-1.141
4.864163004394726,-1.138
4.866160607271274,-1.137
4.868158210147822,-1.131
4.87015581302437,-1.124
4.872153415900918,-1.125
4.874151018777466,-1.123
4.876148621654015,-1.119
4.878146224530563,-1.115
4.880143827407111,-1.113
4.882141430283659,-1.111
4.884139033160207,-1.105
4.886136636036755,-1.101
4.888134238913303,-1.101
4.890131841789851,-1.101
4.892129444666399,-1.101
4.894127047542948,-1.103
4.896124650419496,-1.107
4.8981222532960444,-1.107
4.9001198561725925,-1.104
4.9021174590491405,-1.101
4.904115061925689,-1.103
4.906112664802237,-1.103
4.908110267678785,-1.097
4.910107870555333,-1.094
4.912105473431882,-1.094
4.91410307630843,-1.093
4.916100679184978,-1.093
4.918098282061526,-1.094
4.920095884938074,-1.091
4.922093487814622,-1.083
4.92409109069117,-1.071
4.926088693567718,-1.062
4.928086296444266,-1.055
4.930083899320815,-1.048
4.932081502197363,-1.044
4.934079105073911,-1.041
4.936076707950459,-1.037
4.938074310827007,-1.028
4.940071913703555,-1.022
4.942069516580103,-1.018
4.944067119456651,-1.014
4.946064722333199,-1.017
4.948062325209748,-1.022
4.950059928086296,-1.026
4.952057530962844,-1.03
4.954055133839392,-1.036
4.95605273671594,-1.032
4.958050339592488,-1.03
4.9600479424690365,-1.035
4.9620455453455845,-1.038
4.9640431482221326,-1.048
4.9660407510986815,-1.048
4.9680383539752295,-1.049
4.970035956851778,-1.05
4.972033559728326,-1.05
4.974031162604874,-1.053
4.976028765481422,-1.054
4.97802636835797,-1.06
4.980023971234518,-1.063
4.982021574111066,-1.065
4.984019176987615,-1.062
4.986016779864163,-1.063
4.988014382740711,-1.069
4.990011985617259,-1.072
4.992009588493807,-1.071
4.994007191370355,-1.069
4.996004794246903,-1.071
4.998002397123451,-1.078
4.999999999999999,-1.083
5.001997602876548,-1.083
5.003995205753096,-1.085
5.005992808629644,-1.09
5.007990411506192,-1.093
5.00998801438274,-1.089
5.011985617259288,-1.093
5.013983220135836,-1.099
5.015980823012384,-1.097
5.017978425888932,-1.095
5.019976028765481,-1.094
5.021973631642029,-1.092
5.023971234518577,-1.089
5.0259688373951255,-1.102
5.0279664402716735,-1.112
5.0299640431482215,-1.116
5.03196164602477,-1.121
5.033959248901318,-1.125
5.035956851777866,-1.131
5.037954454654415,-1.135
5.039952057530963,-1.139
5.041949660407511,-1.144
5.043947263284059,-1.148
5.045944866160607,-1.145
5.047942469037155,-1.145
5.049940071913703,-1.145
5.051937674790251,-1.151
5.053935277666799,-1.155
5.055932880543348,-1.155
5.057930483419896,-1.161
5.059928086296444,-1.16
5.061925689172992,-1.167
5.06392329204954,-1.177
5.065920894926088,-1.185
5.067918497802636,-1.19
5.069916100679184,-1.187
5.071913703555732,-1.188
5.073911306432281,-1.194
5.075908909308829,-1.199
5.077906512185377,-1.197
5.079904115061925,-1.195
5.081901717938473,-1.202
5.083899320815021,-1.203
5.085896923691569,-1.208
5.0878945265681175,-1.207
5.0898921294446655,-1.201
5.0918897323212144,-1.208
5.0938873351977625,-1.209
5.0958849380743105,-1.208
5.097882540950859,-1.207
5.099880143827407,-1.204
5.101877746703955,-1.204
5.103875349580503,-1.202
5.105872952457051,-1.2
5.107870555333599,-1.201
5.109868158210148,-1.201
5.111865761086696,-1.203
5.113863363963244,-1.204
5.115860966839792,-1.204
5.11785856971634,-1.206
5.119856172592888,-1.208
5.121853775469436,-1.21
5.123851378345984,-1.208
5.125848981222532,-1.208
5.127846584099081,-1.21
5.129844186975629,-1.212
5.131841789852177,-1.214
5.133839392728725,-1.214
5.135836995605273,-1.214
5.137834598481821,-1.214
5.139832201358369,-1.218
5.141829804234917,-1.217
5.143827407111465,-1.214
5.145825009988014,-1.219
5.147822612864562,-1.228
5.14982021574111,-1.231
5.151817818617658,-1.232
5.1538154214942065,-1.232
5.1558130243707545,-1.236
5.1578106272473025,-1.244
5.159808230123851,-1.252
5.161805833000399,-1.262
5.163803435876948,-1.266
5.165801038753496,-1.26
5.167798641630044,-1.256
5.169796244506592,-1.249
5.17179384738314,-1.238
5.173791450259688,-1.234
5.175789053136236,-1.218
5.177786656012784,-1.192
5.179784258889332,-1.175
5.181781861765881,-1.157
5.183779464642429,-1.14
5.185777067518977,-1.115
5.187774670395525,-1.097
5.189772273272073,-1.077
5.191769876148621,-1.054
5.193767479025169,-1.032
5.195765081901717,-1.001
5.197762684778265,-0.957
5.199760287654814,-0.901
5.201757890531362,-0.826
5.20375549340791,-0.737
5.205753096284458,-0.649
5.207750699161006,-0.572
5.209748302037554,-0.51
5.211745904914102,-0.449
5.21374350779065,-0.403
5.2157411106671985,-0.354
5.217738713543747,-0.29
5.2197363164202955,-0.236
5.2217339192968435,-0.199
5.2237315221733915,-0.185
5.22572912504994,-0.175
5.227726727926488,-0.159
5.229724330803036,-0.134
5.231721933679584,-0.117
5.233719536556132,-0.098
5.235717139432681,-0.074
5.237714742309229,-0.075
5.239712345185777,-0.08
5.241709948062325,-0.083
5.243707550938873,-0.086
5.245705153815421,-0.092
5.247702756691969,-0.102
5.249700359568517,-0.115
5.251697962445065,-0.128
5.253695565321614,-0.142
5.255693168198162,-0.168
5.25769077107471,-0.201
5.259688373951258,-0.242
5.261685976827806,-0.274
5.263683579704354,-0.316
5.265681182580902,-0.367
5.26767878545745,-0.439
5.269676388333998,-0.515
5.271673991210547,-0.553
5.273671594087095,-0.586
5.275669196963643,-0.612
5.277666799840191,-0.632
5.279664402716739,-0.664
5.2816620055932875,-0.701
5.2836596084698355,-0.736
5.2856572113463836,-0.767
5.287654814222932,-0.793
5.2896524170994805,-0.825
5.291650019976029,-0.87
5.293647622852577,-0.908
5.295645225729125,-0.935
5.297642828605673,-0.953
5.299640431482221,-0.959
5.301638034358769,-0.973
5.303635637235317,-0.995
5.305633240111865,-1.013
5.307630842988414,-1.031
5.309628445864962,-1.044
5.31162604874151,-1.052
5.313623651618058,-1.058
5.315621254494606,-1.059
5.317618857371154,-1.067
5.319616460247702,-1.079
5.32161406312425,-1.085
5.323611666000798,-1.096
5.325609268877346,-1.102
5.327606871753895,-1.107
5.329604474630443,-1.111
5.331602077506991,-1.115
5.333599680383539,-1.125
5.335597283260087,-1.127
5.337594886136635,-1.133
5.339592489013183,-1.139
5.341590091889731,-1.14
5.3435876947662795,-1.139
5.345585297642828,-1.14
5.3475829005193765,-1.145
5.3495805033959245,-1.149
5.3515781062724725,-1.151
5.353575709149021,-1.147
5.355573312025569,-1.149
5.357570914902117,-1.154
5.359568517778665,-1.157
5.361566120655213,-1.157
5.363563723531762,-1.163
5.36556132640831,-1.165
5.367558929284858,-1.163
5.369556532161406,-1.161
5.371554135037954,-1.167
5.373551737914502,-1.174
5.37554934079105,-1.173
5.377546943667598,-1.183
5.379544546544146,-1.175
5.381542149420695,-1.167
5.383539752297243,-1.173
5.385537355173791,-1.169
5.387534958050339,-1.171
5.389532560926887,-1.165
5.391530163803435,-1.161
5.393527766679983,-1.161
5.395525369556531,-1.161
5.397522972433079,-1.166
5.399520575309628,-1.171
5.401518178186176,-1.174
5.403515781062724,-1.173
5.405513383939272,-1.173
5.40751098681582,-1.174
5.4095085896923685,-1.173
5.4115061925689165,-1.171
5.413503795445465,-1.17
5.415501398322013,-1.175
5.4174990011985615,-1.175
5.41949660407511,-1.171
5.421494206951658,-1.169
5.423491809828206,-1.169
5.425489412704754,-1.169
5.427487015581302,-1.173
5.42948461845785,-1.176
5.431482221334398,-1.176
5.433479824210946,-1.173
5.435477427087495,-1.171
5.437475029964043,-1.171
5.439472632840591,-1.175
5.441470235717139,-1.18
5.443467838593687,-1.179
5.445465441470235,-1.177
5.447463044346783,-1.177
5.449460647223331,-1.175
5.451458250099879,-1.174
5.453455852976428,-1.177
5.455453455852976,-1.175
5.457451058729524,-1.176
5.459448661606072,-1.173
5.46144626448262,-1.17
5.463443867359168,-1.172
5.465441470235716,-1.17
5.467439073112264,-1.171
5.4694366759888124,-1.171
5.471434278865361,-1.168
5.473431881741909,-1.165
5.4754294846184575,-1.163
5.4774270874950055,-1.158
5.4794246903715536,-1.155
5.481422293248102,-1.155
5.48341989612465,-1.155
5.485417499001198,-1.154
5.487415101877746,-1.149
5.489412704754295,-1.15
5.491410307630843,-1.15
5.493407910507391,-1.156
5.495405513383939,-1.159
5.497403116260487,-1.155
5.499400719137035,-1.164
5.501398322013583,-1.163
5.503395924890131,-1.165
5.505393527766679,-1.162
5.507391130643228,-1.159
5.509388733519776,-1.161
5.511386336396324,-1.158
5.513383939272872,-1.162
5.51538154214942,-1.157
5.517379145025968,-1.156
5.519376747902516,-1.157
5.521374350779064,-1.157
5.523371953655612,-1.156
5.525369556532161,-1.15
5.527367159408709,-1.147
5.529364762285257,-1.143
5.531362365161805,-1.14
5.533359968038353,-1.14
5.535357570914901,-1.142
5.5373551737914495,-1.139
5.5393527766679975,-1.135
5.541350379544546,-1.13
5.5433479824210945,-1.132
5.5453455852976425,-1.137
5.547343188174191,-1.135
5.549340791050739,-1.133
5.551338393927287,-1.133
5.553335996803835,-1.13
5.555333599680383,-1.13
5.557331202556931,-1.129
5.559328805433479,-1.124
5.561326408310028,-1.124
5.563324011186576,-1.123
5.565321614063124,-1.121
5.567319216939672,-1.12
5.56931681981622,-1.119
5.571314422692768,-1.119
5.573312025569316,-1.119
5.575309628445864,-1.119
5.577307231322412,-1.119
5.579304834198961,-1.116
5.581302437075509,-1.116
5.583300039952057,-1.121
5.585297642828605,-1.123
5.587295245705153,-1.121
5.589292848581701,-1.116
5.591290451458249,-1.114
5.593288054334797,-1.112
5.595285657211345,-1.107
5.597283260087894,-1.103
5.599280862964442,-1.105
5.60127846584099,-1.111
5.6032760687175385,-1.109
5.6052736715940865,-1.101
5.607271274470635,-1.098
5.609268877347183,-1.093
5.611266480223731,-1.091
5.613264083100279,-1.097
5.615261685976828,-1.095
5.617259288853376,-1.09
5.619256891729924,-1.091
5.621254494606472,-1.087
5.62325209748302,-1.081
5.625249700359568,-1.077
5.627247303236116,-1.077
5.629244906112664,-1.073
5.631242508989212,-1.069
5.633240111865761,-1.067
5.635237714742309,-1.063
5.637235317618857,-1.062
5.639232920495405,-1.058
5.641230523371953,-1.055
5.643228126248501,-1.052
5.645225729125049,-1.046
5.647223332001597,-1.044
5.649220934878145,-1.042
5.651218537754694,-1.038
5.653216140631242,-1.04
5.65521374350779,-1.04
5.657211346384338,-1.038
5.659208949260886,-1.028
5.661206552137434,-1.02
5.663204155013982,-1.016
5.6652017578905305,-1.014
5.6671993607670785,-1.012
5.6691969636436275,-1.008
5.6711945665201755,-1.006
5.6731921693967235,-1.002
5.675189772273272,-0.999
5.67718737514982,-0.994
5.679184978026368,-0.987
5.681182580902916,-0.985
5.683180183779464,-0.981
5.685177786656012,-0.981
5.687175389532561,-0.984
5.689172992409109,-0.976
5.691170595285657,-0.972
5.693168198162205,-0.97
5.695165801038753,-0.964
5.697163403915301,-0.959
5.699161006791849,-0.954
5.701158609668397,-0.948
5.703156212544945,-0.945
5.705153815421494,-0.948
5.707151418298042,-0.945
5.70914902117459,-0.94
5.711146624051138,-0.933
5.713144226927686,-0.924
5.715141829804234,-0.92
5.717139432680782,-0.91
5.71913703555733,-0.905
5.721134638433878,-0.907
5.723132241310427,-0.906
5.725129844186975,-0.9
5.727127447063523,-0.893
5.729125049940071,-0.893
5.7311226528166195,-0.89
5.7331202556931675,-0.889
5.735117858569716,-0.889
5.737115461446264,-0.884
5.739113064322812,-0.875
5.741110667199361,-0.872
5.743108270075909,-0.87
5.745105872952457,-0.87
5.747103475829005,-0.867
5.749101078705553,-0.861
5.751098681582101,-0.859
5.753096284458649,-0.855
5.755093887335197,-0.851
5.757091490211745,-0.853
5.759089093088294,-0.851
5.761086695964842,-0.848
5.76308429884139,-0.845
5.765081901717938,-0.841
5.767079504594486,-0.84
5.769077107471034,-0.836
5.771074710347582,-0.835
5.77307231322413,-0.84
5.775069916100678,-0.841
5.777067518977227,-0.844
5.779065121853775,-0.845
5.781062724730323,-0.844
5.783060327606871,-0.845
5.785057930483419,-0.85
5.787055533359967,-0.856
5.789053136236515,-0.855
5.7910507391130635,-0.86
5.7930483419896115,-0.866
5.79504594486616,-0.867
5.7970435477427085,-0.866
5.7990411506192565,-0.871
5.801038753495805,-0.876
5.803036356372353,-0.879
5.805033959248901,-0.889
5.807031562125449,-0.897
5.809029165001997,-0.903
5.811026767878545,-0.907
5.813024370755094,-0.911
5.815021973631642,-0.915
5.81701957650819,-0.919
5.819017179384738,-0.925
5.821014782261286,-0.93
5.823012385137834,-0.94
5.825009988014382,-0.949
5.82700759089093,-0.954
5.829005193767478,-0.955
5.831002796644027,-0.958
5.833000399520575,-0.964
5.834998002397123,-0.967
5.836995605273671,-0.971
5.838993208150219,-0.978
5.840990811026767,-0.988
5.842988413903315,-0.999
5.844986016779863,-1.006
5.846983619656411,-1.012
5.84898122253296,-1.016
5.850978825409508,-1.02
5.852976428286056,-1.032
5.854974031162604,-1.041
5.856971634039152,-1.044
5.8589692369157005,-1.05
5.8609668397922485,-1.049
5.862964442668797,-1.049
5.864962045545345,-1.058
5.8669596484218935,-1.064
5.868957251298442,-1.069
5.87095485417499,-1.07
5.872952457051538,-1.069
5.874950059928086,-1.07
5.876947662804634,-1.069
5.878945265681182,-1.075
5.88094286855773,-1.088
5.882940471434278,-1.089
5.884938074310827,-1.087
5.886935677187375,-1.091
5.888933280063923,-1.09
5.890930882940471,-1.09
5.892928485817019,-1.09
5.894926088693567,-1.091
5.896923691570115,-1.091
5.898921294446663,-1.093
5.900918897323211,-1.101
5.90291650019976,-1.101
5.904914103076308,-1.097
5.906911705952856,-1.101
5.908909308829404,-1.106
5.910906911705952,-1.106
5.9129045145825,-1.109
5.914902117459048,-1.113
5.916899720335596,-1.111
5.9188973232121445,-1.112
5.920894926088693,-1.114
5.922892528965241,-1.116
5.9248901318417895,-1.118
5.9268877347183375,-1.117
5.928885337594886,-1.119
5.930882940471434,-1.121
5.932880543347982,-1.127
5.93487814622453,-1.127
5.936875749101078,-1.127
5.938873351977627,-1.122
5.940870954854175,-1.119
5.942868557730723,-1.121
5.944866160607271,-1.119
5.946863763483819,-1.119
5.948861366360367,-1.121
5.950858969236915,-1.121
5.952856572113463,-1.119
5.954854174990011,-1.116
5.95685177786656,-1.119
5.958849380743108,-1.115
5.960846983619656,-1.112
5.962844586496204,-1.127
5.964842189372752,-1.139
5.9668397922493,-1.135
5.968837395125848,-1.125
5.970834998002396,-1.117
5.972832600878944,-1.121
5.974830203755493,-1.125
5.976827806632041,-1.122
5.978825409508589,-1.123
5.980823012385137,-1.127
5.982820615261685,-1.127
5.9848182181382334,-1.128
5.9868158210147815,-1.127
5.9888134238913295,-1.125
5.990811026767878,-1.121
5.9928086296444265,-1.119
5.9948062325209746,-1.121
5.996803835397523,-1.121
5.998801438274071,-1.121
6.000799041150619,-1.125
6.002796644027167,-1.124
6.004794246903715,-1.127
6.006791849780263,-1.125
6.008789452656811,-1.119
6.01078705553336,-1.127
6.012784658409908,-1.127
6.014782261286456,-1.125
6.016779864163004,-1.127
6.018777467039552,-1.131
6.0207750699161,-1.131
6.022772672792648,-1.128
6.024770275669196,-1.131
6.026767878545744,-1.133
6.028765481422293,-1.133
6.030763084298841,-1.129
6.032760687175389,-1.126
6.034758290051937,-1.121
6.036755892928485,-1.122
6.038753495805033,-1.125
6.040751098681581,-1.124
6.042748701558129,-1.125
6.044746304434677,-1.133
6.046743907311226,-1.137
6.048741510187774,-1.134
6.050739113064322,-1.129
6.0527367159408705,-1.123
6.0547343188174185,-1.124
6.056731921693967,-1.127
6.058729524570515,-1.125
6.060727127447063,-1.123
6.062724730323611,-1.123
6.06472233320016,-1.125
6.066719936076708,-1.127
6.068717538953256,-1.128
6.070715141829804,-1.13
6.072712744706352,-1.133
6.0747103475829,-1.135
6.076707950459448,-1.136
6.078705553335996,-1.135
6.080703156212544,-1.137
6.082700759089093,-1.131
6.084698361965641,-1.127
6.086695964842189,-1.132
6.088693567718737,-1.135
6.090691170595285,-1.139
6.092688773471833,-1.141
6.094686376348381,-1.141
6.096683979224929,-1.141
6.098681582101477,-1.142
6.100679184978026,-1.137
6.102676787854574,-1.137
6.104674390731122,-1.141
6.10667199360767,-1.144
6.108669596484218,-1.145
6.110667199360766,-1.138
6.1126648022373145,-1.133
6.1146624051138625,-1.132
6.1166600079904105,-1.139
6.1186576108669595,-1.143
6.1206552137435075,-1.14
6.122652816620056,-1.139
6.124650419496604,-1.135
6.126648022373152,-1.139
6.1286456252497,-1.147
6.130643228126248,-1.149
6.132640831002796,-1.151
6.134638433879344,-1.153
6.136636036755892,-1.147
6.138633639632441,-1.147
6.140631242508989,-1.152
6.142628845385537,-1.152
6.144626448262085,-1.156
6.146624051138633,-1.161
6.148621654015181,-1.163
6.150619256891729,-1.157
6.152616859768277,-1.149
6.154614462644825,-1.149
6.156612065521374,-1.15
6.158609668397922,-1.153
6.16060727127447,-1.153
6.162604874151018,-1.147
6.164602477027566,-1.145
6.166600079904114,-1.145
6.168597682780662,-1.149
6.17059528565721,-1.153
6.172592888533758,-1.155
6.174590491410307,-1.161
6.176588094286855,-1.162
6.1785856971634034,-1.157
6.1805833000399515,-1.159
6.1825809029164995,-1.157
6.184578505793048,-1.157
6.186576108669596,-1.163
6.188573711546144,-1.161
6.190571314422692,-1.163
6.192568917299241,-1.163
6.194566520175789,-1.161
6.196564123052337,-1.166
6.198561725928885,-1.17
6.200559328805433,-1.165
6.202556931681981,-1.167
6.204554534558529,-1.169
6.206552137435077,-1.167
6.208549740311625,-1.171
6.210547343188174,-1.173
6.212544946064722,-1.173
6.21454254894127,-1.173
6.216540151817818,-1.175
6.218537754694366,-1.176
6.220535357570914,-1.176
6.222532960447462,-1.179
6.22453056332401,-1.181
6.226528166200558,-1.181
6.228525769077107,-1.175
6.230523371953655,-1.173
6.232520974830203,-1.175
6.234518577706751,-1.173
6.236516180583299,-1.169
6.238513783459847,-1.167
6.2405113863363955,-1.172
6.2425089892129435,-1.175
6.2445065920894915,-1.177
6.2465041949660405,-1.177
6.2485017978425885,-1.173
6.250499400719137,-1.173
6.252497003595685,-1.175
6.254494606472233,-1.182
6.256492209348781,-1.183
6.258489812225329,-1.183
6.260487415101877,-1.183
6.262485017978425,-1.179
6.264482620854974,-1.179
6.266480223731522,-1.179
6.26847782660807,-1.18
6.270475429484618,-1.179
6.272473032361166,-1.175
6.274470635237714,-1.173
6.276468238114262,-1.176
6.27846584099081,-1.179
6.280463443867358,-1.179
6.282461046743907,-1.181
6.284458649620455,-1.177
6.286456252497003,-1.177
6.288453855373551,-1.18
6.290451458250099,-1.179
6.292449061126647,-1.181
6.294446664003195,-1.181
6.296444266879743,-1.186
6.298441869756291,-1.185
6.30043947263284,-1.185
6.302437075509388,-1.185
6.304434678385936,-1.181
6.3064322812624845,-1.182
6.3084298841390325,-1.185
6.3104274870155805,-1.188
6.312425089892129,-1.182
6.314422692768677,-1.179
6.316420295645225,-1.181
6.318417898521774,-1.181
6.320415501398322,-1.179
6.32241310427487,-1.179
6.324410707151418,-1.184
6.326408310027966,-1.187
6.328405912904514,-1.188
6.330403515781062,-1.188
6.33240111865761,-1.188
6.334398721534158,-1.188
6.336396324410707,-1.188
6.338393927287255,-1.19
6.340391530163803,-1.188
6.342389133040351,-1.188
6.344386735916899,-1.188
6.346384338793447,-1.185
6.348381941669995,-1.188
6.350379544546543,-1.19
6.352377147423091,-1.187
6.35437475029964,-1.187
6.356372353176188,-1.19
6.358369956052736,-1.187
6.360367558929284,-1.188
6.362365161805832,-1.189
6.36436276468238,-1.182
6.366360367558928,-1.183
6.3683579704354765,-1.188
6.3703555733120245,-1.189
6.372353176188573,-1.191
6.3743507790651215,-1.192
6.3763483819416695,-1.194
6.378345984818218,-1.194
6.380343587694766,-1.193
6.382341190571314,-1.192
6.384338793447862,-1.185
6.38633639632441,-1.183
6.388333999200958,-1.192
6.390331602077507,-1.192
6.392329204954055,-1.192
6.394326807830603,-1.194
6.396324410707151,-1.188
6.398322013583699,-1.188
6.400319616460247,-1.188
6.402317219336795,-1.187
6.404314822213343,-1.191
6.406312425089891,-1.186
6.40831002796644,-1.184
6.410307630842988,-1.188
6.412305233719536,-1.192
6.414302836596084,-1.194
6.416300439472632,-1.193
6.41829804234918,-1.189
6.420295645225728,-1.184
6.422293248102276,-1.189
6.424290850978824,-1.192
6.426288453855373,-1.188
6.428286056731921,-1.194
6.430283659608469,-1.194
6.432281262485017,-1.19
6.4342788653615655,-1.189
6.4362764682381135,-1.188
6.4382740711146615,-1.19
6.44027167399121,-1.19
6.442269276867758,-1.187
6.444266879744307,-1.187
6.446264482620855,-1.189
6.448262085497403,-1.19
6.450259688373951,-1.19
6.452257291250499,-1.19
6.454254894127047,-1.19
6.456252497003595,-1.19
6.458250099880143,-1.195
6.460247702756691,-1.197
6.46224530563324,-1.192
6.464242908509788,-1.188
6.466240511386336,-1.189
6.468238114262884,-1.188
6.470235717139432,-1.185
6.47223332001598,-1.183
6.474230922892528,-1.181
6.476228525769076,-1.187
6.478226128645624,-1.188
6.480223731522173,-1.188
6.482221334398721,-1.19
6.484218937275269,-1.188
6.486216540151817,-1.19
6.488214143028365,-1.192
6.490211745904913,-1.19
6.492209348781461,-1.19
6.494206951658009,-1.194
6.4962045545345575,-1.194
6.498202157411106,-1.192
6.5001997602876544,-1.195
6.5021973631642025,-1.196
6.5041949660407505,-1.194
6.506192568917299,-1.197
6.508190171793847,-1.195
6.510187774670395,-1.194
6.512185377546943,-1.194
6.514182980423491,-1.189
6.51618058330004,-1.19
6.518178186176588,-1.194
6.520175789053136,-1.192
6.522173391929684,-1.188
6.524170994806232,-1.19
6.52616859768278,-1.185
6.528166200559328,-1.185
6.530163803435876,-1.186
6.532161406312424,-1.185
6.534159009188973,-1.185
6.536156612065521,-1.185
6.538154214942069,-1.189
6.540151817818617,-1.19
6.542149420695165,-1.186
6.544147023571713,-1.183
6.546144626448261,-1.183
6.548142229324809,-1.185
6.550139832201357,-1.185
6.552137435077906,-1.181
6.554135037954454,-1.178
6.556132640831002,-1.178
6.55813024370755,-1.167
6.560127846584098,-1.164
6.5621254494606465,-1.173
6.5641230523371945,-1.177
6.5661206552137426,-1.179
6.568118258090291,-1.173
6.5701158609668395,-1.171
6.572113463843388,-1.174
6.574111066719936,-1.175
6.576108669596484,-1.177
6.578106272473032,-1.175
6.58010387534958,-1.169
6.582101478226128,-1.165
6.584099081102676,-1.161
6.586096683979224,-1.156
6.588094286855773,-1.155
6.590091889732321,-1.149
6.592089492608869,-1.145
6.594087095485417,-1.145
6.596084698361965,-1.146
6.598082301238513,-1.143
6.600079904115061,-1.14
6.602077506991609,-1.137
6.604075109868157,-1.136
6.606072712744706,-1.139
6.608070315621254,-1.139
6.610067918497802,-1.137
6.61206552137435,-1.135
6.614063124250898,-1.135
6.616060727127446,-1.127
6.618058330003994,-1.125
6.620055932880542,-1.128
6.62205353575709,-1.124
6.624051138633639,-1.124
6.626048741510187,-1.125
6.6280463443867355,-1.123
6.6300439472632835,-1.121
6.6320415501398315,-1.122
6.63403915301638,-1.119
6.636036755892928,-1.112
6.638034358769476,-1.101
6.640031961646024,-1.089
6.642029564522573,-1.077
6.644027167399121,-1.071
6.646024770275669,-1.068
6.648022373152217,-1.062
6.650019976028765,-1.06
6.652017578905313,-1.058
6.654015181781861,-1.053
6.656012784658409,-1.048
6.658010387534957,-1.048
6.660007990411506,-1.045
6.662005593288054,-1.04
6.664003196164602,-1.041
6.66600079904115,-1.05
6.667998401917698,-1.056
6.669996004794246,-1.056
6.671993607670794,-1.055
6.673991210547342,-1.052
6.67598881342389,-1.054
6.677986416300439,-1.055
6.679984019176987,-1.056
6.681981622053535,-1.06
6.683979224930083,-1.062
6.685976827806631,-1.066
6.687974430683179,-1.069
6.6899720335597275,-1.069
6.6919696364362755,-1.069
6.693967239312824,-1.073
6.6959648421893725,-1.076
6.6979624450659205,-1.082
6.699960047942469,-1.087
6.701957650819017,-1.086
6.703955253695565,-1.085
6.705952856572113,-1.09
6.707950459448661,-1.093
6.709948062325209,-1.099
6.711945665201757,-1.108
6.713943268078306,-1.113
6.715940870954854,-1.112
6.717938473831402,-1.105
6.71993607670795,-1.104
6.721933679584498,-1.109
6.723931282461046,-1.11
6.725928885337594,-1.108
6.727926488214142,-1.107
6.72992409109069,-1.108
6.731921693967239,-1.107
6.733919296843787,-1.105
6.735916899720335,-1.108
6.737914502596883,-1.109
6.739912105473431,-1.113
6.741909708349979,-1.123
6.743907311226527,-1.132
6.745904914103075,-1.138
6.747902516979623,-1.146
6.749900119856172,-1.155
6.75189772273272,-1.159
6.753895325609268,-1.165
6.7558929284858165,-1.165
6.7578905313623645,-1.163
6.7598881342389125,-1.165
6.761885737115461,-1.167
6.763883339992009,-1.172
6.765880942868557,-1.17
6.767878545745106,-1.171
6.769876148621654,-1.18
6.771873751498202,-1.183
6.77387135437475,-1.188
6.775868957251298,-1.194
6.777866560127846,-1.198
6.779864163004394,-1.201
6.781861765880942,-1.203
6.78385936875749,-1.202
6.785856971634039,-1.202
6.787854574510587,-1.212
6.789852177387135,-1.218
6.791849780263683,-1.212
6.793847383140231,-1.213
6.795844986016779,-1.213
6.797842588893327,-1.208
6.799840191769875,-1.214
6.801837794646423,-1.216
6.803835397522972,-1.216
6.80583300039952,-1.216
6.807830603276068,-1.214
6.809828206152616,-1.216
6.811825809029164,-1.216
6.813823411905712,-1.216
6.81582101478226,-1.216
6.8178186176588085,-1.218
6.8198162205353565,-1.22
6.8218138234119055,-1.22
6.8238114262884535,-1.219
6.8258090291650015,-1.221
6.82780663204155,-1.222
6.829804234918098,-1.222
6.831801837794646,-1.221
6.833799440671194,-1.219
6.835797043547742,-1.218
6.83779464642429,-1.215
6.839792249300839,-1.214
6.841789852177387,-1.216
6.843787455053935,-1.218
6.845785057930483,-1.217
6.847782660807031,-1.211
6.849780263683579,-1.212
6.851777866560127,-1.219
6.853775469436675,-1.224
6.855773072313223,-1.22
6.857770675189772,-1.217
6.85976827806632,-1.222
6.861765880942868,-1.221
6.863763483819416,-1.22
6.865761086695964,-1.224
6.867758689572512,-1.234
6.86975629244906,-1.249
6.871753895325608,-1.259
6.873751498202156,-1.264
6.875749101078705,-1.272
6.877746703955253,-1.282
6.879744306831801,-1.284
6.881741909708349,-1.282
6.8837395125848975,-1.273
6.8857371154614455,-1.26
6.8877347183379936,-1.25
6.889732321214542,-1.236
6.89172992409109,-1.212
6.893727526967639,-1.186
6.895725129844187,-1.167
6.897722732720735,-1.149
6.899720335597283,-1.125
6.901717938473831,-1.101
6.903715541350379,-1.075
6.905713144226927,-1.056
6.907710747103475,-1.033
6.909708349980023,-0.994
6.911705952856572,-0.942
6.91370355573312,-0.881
6.915701158609668,-0.801
6.917698761486216,-0.709
6.919696364362764,-0.624
6.921693967239312,-0.541
6.92369157011586,-0.478
6.925689172992408,-0.416
6.927686775868956,-0.362
6.929684378745505,-0.315
6.931681981622053,-0.252
6.933679584498601,-0.197
6.935677187375149,-0.156
6.937674790251697,-0.134
6.939672393128245,-0.119
6.941669996004793,-0.093
6.943667598881341,-0.07
6.9456652017578895,-0.054
6.947662804634438,-0.031
6.9496604075109865,-0.007
6.9516580103875345,-0.006
6.9536556132640825,-0.002
6.955653216140631,0.004
6.957650819017179,0.004
6.959648421893727,0.001
6.961646024770275,-0.013
6.963643627646823,-0.032
6.965641230523371,-0.054
6.96763883339992,-0.068
6.969636436276468,-0.089
6.971634039153016,-0.13
6.973631642029564,-0.177
6.975629244906112,-0.211
6.97762684778266,-0.253
6.979624450659208,-0.312
6.981622053535756,-0.384
6.983619656412304,-0.46
6.985617259288853,-0.5
6.987614862165401,-0.532
6.989612465041949,-0.557
6.991610067918497,-0.58
6.993607670795045,-0.62
6.995605273671593,-0.661
6.997602876548141,-0.698
6.999600479424689,-0.733
7.001598082301237,-0.773
7.003595685177786,-0.816
7.005593288054334,-0.856
7.007590890930882,-0.887
7.00958849380743,-0.922
7.0115860966839785,-0.946
7.0135836995605265,-0.95
7.015581302437075,-0.958
7.017578905313623,-0.972
7.019576508190171,-0.992
7.02157411106672,-1.006
7.023571713943268,-1.026
7.025569316819816,-1.044
7.027566919696364,-1.042
7.029564522572912,-1.054
7.03156212544946,-1.071
7.033559728326008,-1.077
7.035557331202556,-1.089
7.037554934079104,-1.1
7.039552536955653,-1.107
7.041550139832201,-1.113
7.043547742708749,-1.115
7.045545345585297,-1.117
7.047542948461845,-1.126
7.049540551338393,-1.127
7.051538154214941,-1.125
7.053535757091489,-1.135
7.055533359968037,-1.141
7.057530962844586,-1.145
7.059528565721134,-1.143
7.061526168597682,-1.145
7.06352377147423,-1.148
7.065521374350778,-1.146
7.067518977227326,-1.152
7.069516580103874,-1.15
7.0715141829804224,-1.149
7.0735117858569705,-1.154
7.075509388733519,-1.153
7.0775069916100675,-1.153
7.0795045944866155,-1.153
7.0815021973631636,-1.155
7.083499800239712,-1.161
7.08549740311626,-1.163
7.087495005992808,-1.165
7.089492608869356,-1.161
7.091490211745904,-1.161
7.093487814622453,-1.159
7.095485417499001,-1.162
7.097483020375549,-1.167
7.099480623252097,-1.166
7.101478226128645,-1.167
7.103475829005193,-1.171
7.105473431881741,-1.171
7.107471034758289,-1.167
7.109468637634837,-1.166
7.111466240511386,-1.165
7.113463843387934,-1.165
7.115461446264482,-1.165
7.11745904914103,-1.163
7.119456652017578,-1.157
7.121454254894126,-1.153
7.123451857770674,-1.151
7.125449460647222,-1.149
7.12744706352377,-1.15
7.129444666400319,-1.153
7.131442269276867,-1.152
7.133439872153415,-1.151
7.135437475029963,-1.153
7.137435077906511,-1.147
7.1394326807830595,-1.145
7.1414302836596075,-1.151
7.143427886536156,-1.153
7.145425489412704,-1.155
7.1474230922892525,-1.156
7.149420695165801,-1.155
7.151418298042349,-1.153
7.153415900918897,-1.147
7.155413503795445,-1.143
7.157411106671993,-1.146
7.159408709548541,-1.149
7.161406312425089,-1.149
7.163403915301637,-1.15
7.165401518178186,-1.155
7.167399121054734,-1.155
7.169396723931282,-1.151
7.17139432680783,-1.151
7.173391929684378,-1.15
7.175389532560926,-1.149
7.177387135437474,-1.145
7.179384738314022,-1.138
7.18138234119057,-1.132
7.183379944067119,-1.132
7.185377546943667,-1.135
7.187375149820215,-1.139
7.189372752696763,-1.137
7.191370355573311,-1.135
7.193367958449859,-1.137
7.195365561326407,-1.139
7.197363164202955,-1.138
7.1993607670795035,-1.133
7.201358369956052,-1.133
7.2033559728326,-1.131
7.2053535757091485,-1.133
7.2073511785856965,-1.137
7.209348781462245,-1.133
7.211346384338793,-1.129
7.213343987215341,-1.128
7.215341590091889,-1.128
7.217339192968437,-1.125
7.219336795844986,-1.12
7.221334398721534,-1.123
7.223332001598082,-1.123
7.22532960447463,-1.123
7.227327207351178,-1.123
7.229324810227726,-1.118
7.231322413104274,-1.115
7.233320015980822,-1.112
7.23531761885737,-1.111
7.237315221733919,-1.109
7.239312824610467,-1.107
7.241310427487015,-1.11
7.243308030363563,-1.111
7.245305633240111,-1.111
7.247303236116659,-1.107
7.249300838993207,-1.104
7.251298441869755,-1.107
7.253296044746303,-1.111
7.255293647622852,-1.103
7.2572912504994,-1.095
7.259288853375948,-1.098
7.261286456252496,-1.101
7.263284059129044,-1.101
7.2652816620055924,-1.101
7.2672792648821405,-1.099
7.2692768677586885,-1.097
7.271274470635237,-1.095
7.2732720735117855,-1.091
7.2752696763883336,-1.087
7.277267279264882,-1.085
7.27926488214143,-1.089
7.281262485017978,-1.097
7.283260087894526,-1.093
7.285257690771074,-1.087
7.287255293647622,-1.087
7.28925289652417,-1.085
7.291250499400719,-1.075
7.293248102277267,-1.075
7.295245705153815,-1.079
7.297243308030363,-1.076
7.299240910906911,-1.077
7.301238513783459,-1.076
7.303236116660007,-1.069
7.305233719536555,-1.068
7.307231322413103,-1.079
7.309228925289652,-1.079
7.3112265281662,-1.069
7.313224131042748,-1.063
7.315221733919296,-1.055
7.317219336795844,-1.054
7.319216939672392,-1.051
7.32121454254894,-1.052
7.323212145425488,-1.05
7.325209748302036,-1.05
7.327207351178585,-1.052
7.329204954055133,-1.054
7.331202556931681,-1.061
7.3332001598082295,-1.06
7.3351977626847775,-1.056
7.337195365561326,-1.056
7.339192968437874,-1.052
7.341190571314422,-1.046
7.34318817419097,-1.04
7.345185777067519,-1.038
7.347183379944067,-1.035
7.349180982820615,-1.03
7.351178585697163,-1.026
7.353176188573711,-1.022
7.355173791450259,-1.014
7.357171394326807,-1.008
7.359168997203355,-1.006
7.361166600079903,-1.0
7.363164202956452,-0.993
7.365161805833,-0.99
7.367159408709548,-0.979
7.369157011586096,-0.976
7.371154614462644,-0.979
7.373152217339192,-0.976
7.37514982021574,-0.976
7.377147423092288,-0.969
7.379145025968836,-0.963
7.381142628845385,-0.96
7.383140231721933,-0.956
7.385137834598481,-0.952
7.387135437475029,-0.946
7.389133040351577,-0.941
7.391130643228125,-0.932
7.3931282461046735,-0.931
7.3951258489812215,-0.929
7.3971234518577695,-0.926
7.3991210547343185,-0.923
7.4011186576108665,-0.917
7.403116260487415,-0.915
7.405113863363963,-0.909
7.407111466240511,-0.9
7.409109069117059,-0.899
7.411106671993607,-0.898
7.413104274870155,-0.893
7.415101877746703,-0.888
7.417099480623252,-0.887
7.4190970834998,-0.885
7.421094686376348,-0.876
7.423092289252896,-0.874
7.425089892129444,-0.871
7.427087495005992,-0.867
7.42908509788254,-0.867
7.431082700759088,-0.861
7.433080303635636,-0.853
7.435077906512185,-0.848
7.437075509388733,-0.841
7.439073112265281,-0.837
7.441070715141829,-0.839
7.443068318018377,-0.837
7.445065920894925,-0.828
7.447063523771473,-0.825
7.449061126648021,-0.827
7.451058729524569,-0.826
7.453056332401118,-0.822
7.455053935277666,-0.817
7.457051538154214,-0.814
7.459049141030762,-0.81
7.4610467439073105,-0.806
7.4630443467838585,-0.804
7.465041949660407,-0.801
7.467039552536955,-0.799
7.469037155413503,-0.799
7.471034758290052,-0.794
7.4730323611666,-0.791
7.475029964043148,-0.794
7.477027566919696,-0.794
7.479025169796244,-0.791
7.481022772672792,-0.789
7.48302037554934,-0.793
7.485017978425888,-0.793
7.487015581302436,-0.793
7.489013184178985,-0.79
7.491010787055533,-0.789
7.493008389932081,-0.792
7.495005992808629,-0.795
7.497003595685177,-0.801
7.499001198561725,-0.798
7.500998801438273,-0.794
7.502996404314821,-0.802
7.504994007191369,-0.809
7.506991610067918,-0.807
7.508989212944466,-0.812
7.510986815821014,-0.818
7.512984418697562,-0.82
7.51498202157411,-0.829
7.516979624450658,-0.833
7.518977227327206,-0.836
7.5209748302037545,-0.842
7.5229724330803025,-0.846
7.524970035956851,-0.853
7.5269676388333995,-0.859
7.5289652417099475,-0.862
7.530962844586496,-0.872
7.532960447463044,-0.884
7.534958050339592,-0.886
7.53695565321614,-0.894
7.538953256092688,-0.903
7.540950858969236,-0.908
7.542948461845785,-0.922
7.544946064722333,-0.929
7.546943667598881,-0.932
7.548941270475429,-0.939
7.550938873351977,-0.944
7.552936476228525,-0.945
7.554934079105073,-0.951
7.556931681981621,-0.959
7.558929284858169,-0.962
7.560926887734718,-0.974
7.562924490611266,-0.986
7.564922093487814,-0.981
7.566919696364362,-0.978
7.56891729924091,-0.988
7.570914902117458,-0.993
7.572912504994006,-0.999
7.574910107870554,-1.004
7.576907710747102,-1.008
7.578905313623651,-1.016
7.580902916500199,-1.018
7.582900519376747,-1.018
7.584898122253295,-1.024
7.5868957251298434,-1.028
7.5888933280063915,-1.03
7.5908909308829395,-1.034
7.592888533759488,-1.036
7.594886136636036,-1.04
7.5968837395125846,-1.043
7.598881342389133,-1.044
7.600878945265681,-1.045
7.602876548142229,-1.046
7.604874151018777,-1.048
7.606871753895325,-1.052
7.608869356771873,-1.056
7.610866959648421,-1.062
7.612864562524969,-1.063
7.614862165401518,-1.059
7.616859768278066,-1.06
7.618857371154614,-1.063
7.620854974031162,-1.071
7.62285257690771,-1.069
7.624850179784258,-1.065
7.626847782660806,-1.067
7.628845385537354,-1.07
7.630842988413902,-1.074
7.632840591290451,-1.073
7.634838194166999,-1.075
7.636835797043547,-1.075
7.638833399920095,-1.069
7.640831002796643,-1.069
7.642828605673191,-1.071
7.644826208549739,-1.071
7.646823811426287,-1.067
7.6488214143028355,-1.068
7.650819017179384,-1.07
7.652816620055932,-1.073
7.6548142229324805,-1.07
7.6568118258090285,-1.071
7.658809428685577,-1.073
7.660807031562125,-1.069
7.662804634438673,-1.069
7.664802237315221,-1.066
7.666799840191769,-1.062
7.668797443068318,-1.062
7.670795045944866,-1.063
7.672792648821414,-1.063
7.674790251697962,-1.065
7.67678785457451,-1.062
7.678785457451058,-1.058
7.680783060327606,-1.056
7.682780663204154,-1.062
7.684778266080702,-1.066
7.686775868957251,-1.059
7.688773471833799,-1.056
7.690771074710347,-1.058
7.692768677586895,-1.058
7.694766280463443,-1.058
7.696763883339991,-1.06
7.698761486216539,-1.06
7.700759089093087,-1.06
7.702756691969635,-1.062
7.704754294846184,-1.058
7.706751897722732,-1.062
7.70874950059928,-1.067
7.710747103475828,-1.069
7.712744706352376,-1.058
7.7147423092289245,-1.052
7.7167399121054725,-1.06
7.7187375149820205,-1.061
7.720735117858569,-1.061
7.7227327207351175,-1.06
7.724730323611666,-1.063
7.726727926488214,-1.065
7.728725529364762,-1.062
7.73072313224131,-1.063
7.732720735117858,-1.066
7.734718337994406,-1.067
7.736715940870954,-1.065
7.738713543747502,-1.06
7.740711146624051,-1.059
7.742708749500599,-1.056
7.744706352377147,-1.061
7.746703955253695,-1.075
7.748701558130243,-1.073
7.750699161006791,-1.069
7.752696763883339,-1.067
7.754694366759887,-1.065
7.756691969636435,-1.067
7.758689572512984,-1.069
7.760687175389532,-1.072
7.76268477826608,-1.075
7.764682381142628,-1.079
7.766679984019176,-1.075
7.768677586895724,-1.074
7.770675189772272,-1.073
7.77267279264882,-1.071
7.774670395525368,-1.073
7.7766679984019165,-1.071
7.778665601278465,-1.067
7.7806632041550134,-1.065
7.7826608070315615,-1.065
7.7846584099081095,-1.062
7.786656012784658,-1.06
7.788653615661206,-1.062
7.790651218537754,-1.067
7.792648821414302,-1.064
7.79464642429085,-1.062
7.796644027167399,-1.069
7.798641630043947,-1.065
7.800639232920495,-1.067
7.802636835797043,-1.071
7.804634438673591,-1.064
7.806632041550139,-1.062
7.808629644426687,-1.062
7.810627247303235,-1.065
7.812624850179783,-1.069
7.814622453056332,-1.069
7.81662005593288,-1.071
7.818617658809428,-1.073
7.820615261685976,-1.07
7.822612864562524,-1.069
7.824610467439072,-1.069
7.82660807031562,-1.065
7.828605673192168,-1.062
7.830603276068716,-1.06
7.832600878945265,-1.058
7.834598481821813,-1.062
7.836596084698361,-1.064
7.838593687574909,-1.069
7.840591290451457,-1.069
7.8425888933280055,-1.071
7.8445864962045535,-1.071
7.8465840990811015,-1.067
7.84858170195765,-1.069
7.8505793048341985,-1.068
7.852576907710747,-1.073
7.854574510587295,-1.074
7.856572113463843,-1.071
7.858569716340391,-1.072
7.860567319216939,-1.068
7.862564922093487,-1.074
7.864562524970035,-1.087
7.866560127846583,-1.089
7.868557730723132,-1.081
7.87055533359968,-1.079
7.872552936476228,-1.081
7.874550539352776,-1.082
7.876548142229324,-1.079
7.878545745105872,-1.077
7.88054334798242,-1.075
7.882540950858968,-1.071
7.884538553735516,-1.069
7.886536156612065,-1.067
7.888533759488613,-1.069
7.890531362365161,-1.081
7.892528965241709,-1.085
7.894526568118257,-1.075
7.896524170994805,-1.072
7.898521773871353,-1.075
7.900519376747901,-1.075
7.902516979624449,-1.078
7.904514582500998,-1.079
7.906512185377546,-1.08
7.9085097882540945,-1.079
7.9105073911306425,-1.075
7.9125049940071905,-1.069
7.914502596883739,-1.069
7.916500199760287,-1.073
7.918497802636835,-1.071
7.920495405513383,-1.077
7.922493008389932,-1.085
7.92449061126648,-1.083
7.926488214143028,-1.082
7.928485817019576,-1.081
7.930483419896124,-1.079
7.932481022772672,-1.081
7.93447862564922,-1.084
7.936476228525768,-1.081
7.938473831402316,-1.083
7.940471434278865,-1.082
7.942469037155413,-1.077
7.944466640031961,-1.077
7.946464242908509,-1.084
7.948461845785057,-1.086
7.950459448661605,-1.084
7.952457051538153,-1.087
7.954454654414701,-1.091
7.956452257291249,-1.091
7.958449860167798,-1.087
7.960447463044346,-1.087
7.962445065920894,-1.087
7.964442668797442,-1.087
7.96644027167399,-1.087
7.968437874550538,-1.085
7.9704354774270865,-1.091
7.9724330803036345,-1.097
7.9744306831801826,-1.095
7.9764282860567315,-1.092
7.9784258889332795,-1.093
7.980423491809828,-1.099
7.982421094686376,-1.103
7.984418697562924,-1.099
7.986416300439472,-1.097
7.98841390331602,-1.099
7.990411506192568,-1.098
7.992409109069116,-1.094
7.994406711945665,-1.089
7.996404314822213,-1.091
7.998401917698761,-1.097
8.000399520575309,-1.097
8.002397123451857,-1.097
8.004394726328405,-1.099
8.006392329204953,-1.1
8.008389932081501,-1.097
8.01038753495805,-1.099
8.012385137834597,-1.099
8.014382740711145,-1.094
8.016380343587693,-1.104
8.018377946464241,-1.111
8.020375549340791,-1.106
8.02237315221734,-1.103
8.024370755093887,-1.106
8.026368357970435,-1.111
8.028365960846983,-1.113
8.030363563723531,-1.109
8.03236116660008,-1.105
8.034358769476627,-1.101
8.036356372353175,-1.097
8.038353975229724,-1.099
8.040351578106272,-1.104
8.04234918098282,-1.103
8.044346783859368,-1.101
8.046344386735916,-1.097
8.048341989612464,-1.09
8.050339592489012,-1.091
8.05233719536556,-1.093
8.054334798242108,-1.094
8.056332401118658,-1.093
8.058330003995206,-1.095
8.060327606871754,-1.095
8.062325209748302,-1.095
8.06432281262485,-1.096
8.066320415501398,-1.097
8.068318018377946,-1.101
8.070315621254494,-1.099
8.072313224131042,-1.097
8.07431082700759,-1.099
8.076308429884138,-1.097
8.078306032760686,-1.093
8.080303635637234,-1.097
8.082301238513782,-1.099
8.08429884139033,-1.097
8.086296444266878,-1.103
8.088294047143426,-1.103
8.090291650019974,-1.1
8.092289252896524,-1.101
8.094286855773072,-1.094
8.09628445864962,-1.097
8.098282061526168,-1.099
8.100279664402716,-1.098
8.102277267279264,-1.1
8.104274870155812,-1.097
8.10627247303236,-1.1
8.108270075908909,-1.097
8.110267678785457,-1.093
8.112265281662005,-1.097
8.114262884538553,-1.099
8.1162604874151,-1.095
8.118258090291649,-1.095
8.120255693168197,-1.101
8.122253296044745,-1.098
8.124250898921293,-1.102
8.126248501797841,-1.103
8.12824610467439,-1.099
8.130243707550939,-1.101
8.132241310427487,-1.098
8.134238913304035,-1.1
8.136236516180583,-1.101
8.138234119057131,-1.098
8.140231721933679,-1.095
8.142229324810227,-1.097
8.144226927686775,-1.098
8.146224530563323,-1.097
8.148222133439871,-1.097
8.15021973631642,-1.09
8.152217339192967,-1.088
8.154214942069515,-1.093
8.156212544946063,-1.093
8.158210147822611,-1.093
8.16020775069916,-1.095
8.162205353575708,-1.094
8.164202956452257,-1.091
8.166200559328805,-1.089
8.168198162205353,-1.089
8.170195765081901,-1.085
8.17219336795845,-1.085
8.174190970834998,-1.089
8.176188573711546,-1.093
8.178186176588094,-1.096
8.180183779464642,-1.095
8.18218138234119,-1.098
8.184178985217738,-1.093
8.186176588094286,-1.091
8.188174190970834,-1.093
8.190171793847382,-1.088
8.19216939672393,-1.085
8.194166999600478,-1.085
8.196164602477026,-1.093
8.198162205353574,-1.091
8.200159808230122,-1.089
8.202157411106672,-1.087
8.20415501398322,-1.087
8.206152616859768,-1.091
8.208150219736316,-1.09
8.210147822612864,-1.088
8.212145425489412,-1.087
8.21414302836596,-1.085
8.216140631242508,-1.085
8.218138234119056,-1.089
8.220135836995604,-1.085
8.222133439872152,-1.08
8.2241310427487,-1.083
8.226128645625248,-1.083
8.228126248501797,-1.087
8.230123851378345,-1.09
8.232121454254893,-1.085
8.23411905713144,-1.083
8.236116660007989,-1.083
8.238114262884539,-1.079
8.240111865761087,-1.076
8.242109468637635,-1.079
8.244107071514183,-1.076
8.24610467439073,-1.071
8.248102277267279,-1.071
8.250099880143827,-1.084
8.252097483020375,-1.09
8.254095085896923,-1.087
8.256092688773471,-1.085
8.258090291650019,-1.076
8.260087894526567,-1.079
8.262085497403115,-1.075
8.264083100279663,-1.069
8.266080703156211,-1.069
8.26807830603276,-1.065
8.270075908909307,-1.067
8.272073511785855,-1.06
8.274071114662405,-1.053
8.276068717538953,-1.048
8.278066320415501,-1.046
8.28006392329205,-1.042
8.282061526168597,-1.036
8.284059129045145,-1.036
8.286056731921693,-1.034
8.288054334798241,-1.03
8.29005193767479,-1.028
8.292049540551337,-1.026
8.294047143427886,-1.03
8.296044746304434,-1.034
8.298042349180982,-1.034
8.30003995205753,-1.028
8.302037554934078,-1.02
8.304035157810626,-1.019
8.306032760687174,-1.022
8.308030363563722,-1.025
8.310027966440272,-1.026
8.31202556931682,-1.021
8.314023172193368,-1.018
8.316020775069916,-1.018
8.318018377946464,-1.02
8.320015980823012,-1.017
8.32201358369956,-1.006
8.324011186576108,-0.994
8.326008789452656,-0.983
8.328006392329204,-0.98
8.330003995205752,-0.973
8.3320015980823,-0.963
8.333999200958848,-0.96
8.335996803835396,-0.956
8.337994406711944,-0.947
8.339992009588492,-0.936
8.34198961246504,-0.926
8.343987215341588,-0.927
8.345984818218138,-0.93
8.347982421094686,-0.925
8.349980023971234,-0.926
8.351977626847782,-0.928
8.35397522972433,-0.932
8.355972832600878,-0.935
8.357970435477426,-0.936
8.359968038353975,-0.939
8.361965641230523,-0.939
8.36396324410707,-0.944
8.365960846983619,-0.947
8.367958449860167,-0.948
8.369956052736715,-0.949
8.371953655613263,-0.95
8.37395125848981,-0.955
8.375948861366359,-0.958
8.377946464242907,-0.956
8.379944067119455,-0.955
8.381941669996005,-0.96
8.383939272872553,-0.966
8.3859368757491,-0.968
8.387934478625649,-0.972
8.389932081502197,-0.979
8.391929684378745,-0.977
8.393927287255293,-0.982
8.395924890131841,-0.984
8.397922493008389,-0.987
8.399920095884937,-0.99
8.401917698761485,-0.983
8.403915301638033,-0.989
8.405912904514581,-0.996
8.40791050739113,-0.997
8.409908110267677,-0.997
8.411905713144225,-0.999
8.413903316020773,-1.004
8.415900918897322,-1.003
8.417898521773871,-0.995
8.41989612465042,-0.99
8.421893727526967,-0.99
8.423891330403515,-0.99
8.425888933280063,-1.002
8.427886536156612,-1.01
8.42988413903316,-1.014
8.431881741909708,-1.021
8.433879344786256,-1.023
8.435876947662804,-1.027
8.437874550539352,-1.032
8.4398721534159,-1.04
8.441869756292448,-1.046
8.443867359168996,-1.046
8.445864962045544,-1.042
8.447862564922092,-1.042
8.44986016779864,-1.049
8.451857770675188,-1.058
8.453855373551738,-1.067
8.455852976428286,-1.073
8.457850579304834,-1.071
8.459848182181382,-1.072
8.46184578505793,-1.081
8.463843387934478,-1.085
8.465840990811026,-1.088
8.467838593687574,-1.096
8.469836196564122,-1.101
8.47183379944067,-1.099
8.473831402317218,-1.097
8.475829005193766,-1.097
8.477826608070314,-1.101
8.479824210946862,-1.101
8.48182181382341,-1.108
8.483819416699959,-1.105
8.485817019576507,-1.105
8.487814622453055,-1.11
8.489812225329604,-1.108
8.491809828206152,-1.115
8.4938074310827,-1.118
8.495805033959249,-1.118
8.497802636835797,-1.119
8.499800239712345,-1.121
8.501797842588893,-1.12
8.50379544546544,-1.112
8.505793048341989,-1.11
8.507790651218537,-1.113
8.509788254095085,-1.115
8.511785856971633,-1.113
8.513783459848181,-1.111
8.515781062724729,-1.109
8.517778665601277,-1.107
8.519776268477825,-1.106
8.521773871354373,-1.109
8.523771474230921,-1.107
8.525769077107471,-1.107
8.527766679984019,-1.107
8.529764282860567,-1.108
8.531761885737115,-1.111
8.533759488613663,-1.111
8.535757091490211,-1.111
8.53775469436676,-1.111
8.539752297243307,-1.111
8.541749900119855,-1.108
8.543747502996403,-1.108
8.545745105872951,-1.113
8.5477427087495,-1.117
8.549740311626048,-1.121
8.551737914502596,-1.125
8.553735517379144,-1.126
8.555733120255692,-1.131
8.55773072313224,-1.139
8.559728326008788,-1.151
8.561725928885338,-1.159
8.563723531761886,-1.163
8.565721134638434,-1.174
8.567718737514982,-1.177
8.56971634039153,-1.173
8.571713943268078,-1.162
8.573711546144626,-1.153
8.575709149021174,-1.145
8.577706751897722,-1.131
8.57970435477427,-1.109
8.581701957650818,-1.077
8.583699560527366,-1.058
8.585697163403914,-1.04
8.587694766280462,-1.007
8.58969236915701,-0.983
8.591689972033558,-0.958
8.593687574910106,-0.93
8.595685177786654,-0.898
8.597682780663204,-0.865
8.599680383539752,-0.827
8.6016779864163,-0.765
8.603675589292848,-0.686
8.605673192169396,-0.594
8.607670795045944,-0.504
8.609668397922492,-0.42
8.61166600079904,-0.353
8.613663603675588,-0.294
8.615661206552137,-0.24
8.617658809428685,-0.185
8.619656412305233,-0.118
8.62165401518178,-0.06
8.623651618058329,-0.017
8.625649220934877,0.009
8.627646823811425,0.025
8.629644426687973,0.053
8.63164202956452,0.092
8.63363963244107,0.109
8.635637235317619,0.121
8.637634838194167,0.142
8.639632441070715,0.142
8.641630043947263,0.139
8.643627646823811,0.146
8.645625249700359,0.144
8.647622852576907,0.13
8.649620455453455,0.118
8.651618058330003,0.112
8.653615661206551,0.098
8.6556132640831,0.076
8.657610866959647,0.057
8.659608469836195,0.021
8.661606072712743,-0.018
8.663603675589291,-0.06
8.66560127846584,-0.105
8.667598881342387,-0.16
8.669596484218937,-0.236
8.671594087095485,-0.309
8.673591689972033,-0.362
8.675589292848581,-0.409
8.67758689572513,-0.44
8.679584498601677,-0.463
8.681582101478226,-0.502
8.683579704354774,-0.533
8.685577307231322,-0.57
8.68757491010787,-0.611
8.689572512984418,-0.648
8.691570115860966,-0.694
8.693567718737514,-0.741
8.695565321614062,-0.781
8.69756292449061,-0.807
8.699560527367158,-0.82
8.701558130243706,-0.83
8.703555733120254,-0.839
8.705553335996804,-0.85
8.707550938873352,-0.87
8.7095485417499,-0.892
8.711546144626448,-0.906
8.713543747502996,-0.919
8.715541350379544,-0.936
8.717538953256092,-0.947
8.71953655613264,-0.953
8.721534159009188,-0.967
8.723531761885736,-0.976
8.725529364762284,-0.982
8.727526967638832,-0.991
8.72952457051538,-0.995
8.731522173391928,-1.001
8.733519776268476,-1.006
8.735517379145024,-1.013
8.737514982021573,-1.015
8.73951258489812,-1.02
8.74151018777467,-1.023
8.743507790651218,-1.026
8.745505393527766,-1.032
8.747502996404315,-1.034
8.749500599280863,-1.037
8.75149820215741,-1.039
8.753495805033959,-1.038
8.755493407910507,-1.037
8.757491010787055,-1.038
8.759488613663603,-1.04
8.76148621654015,-1.044
8.763483819416699,-1.044
8.765481422293247,-1.043
8.767479025169795,-1.044
8.769476628046343,-1.048
8.771474230922891,-1.052
8.773471833799439,-1.054
8.775469436675987,-1.053
8.777467039552537,-1.056
8.779464642429085,-1.061
8.781462245305633,-1.06
8.783459848182181,-1.059
8.785457451058729,-1.06
8.787455053935277,-1.061
8.789452656811825,-1.059
8.791450259688373,-1.054
8.793447862564921,-1.054
8.79544546544147,-1.054
8.797443068318017,-1.054
8.799440671194565,-1.056
8.801438274071113,-1.054
8.803435876947661,-1.05
8.80543347982421,-1.048
8.807431082700758,-1.049
8.809428685577306,-1.046
8.811426288453854,-1.047
8.813423891330403,-1.052
8.815421494206952,-1.052
8.8174190970835,-1.05
8.819416699960048,-1.046
8.821414302836596,-1.049
8.823411905713144,-1.05
8.825409508589692,-1.05
8.82740711146624,-1.05
8.829404714342788,-1.05
8.831402317219336,-1.049
8.833399920095884,-1.045
8.835397522972432,-1.048
8.83739512584898,-1.05
8.839392728725528,-1.046
8.841390331602076,-1.044
8.843387934478624,-1.042
8.845385537355172,-1.04
8.84738314023172,-1.039
8.84938074310827,-1.042
8.851378345984818,-1.04
8.853375948861366,-1.04
8.855373551737914,-1.041
8.857371154614462,-1.042
8.85936875749101,-1.043
8.861366360367558,-1.042
8.863363963244106,-1.042
8.865361566120654,-1.04
8.867359168997202,-1.038
8.86935677187375,-1.036
8.871354374750299,-1.034
8.873351977626847,-1.032
8.875349580503395,-1.032
8.877347183379943,-1.03
8.87934478625649,-1.029
8.881342389133039,-1.033
8.883339992009587,-1.033
8.885337594886137,-1.03
8.887335197762685,-1.027
8.889332800639233,-1.024
8.89133040351578,-1.024
8.893328006392329,-1.027
8.895325609268877,-1.028
8.897323212145425,-1.03
8.899320815021973,-1.03
8.901318417898521,-1.026
8.903316020775069,-1.026
8.905313623651617,-1.03
8.907311226528165,-1.03
8.909308829404713,-1.028
8.911306432281261,-1.026
8.91330403515781,-1.024
8.915301638034357,-1.02
8.917299240910905,-1.018
8.919296843787453,-1.018
8.921294446664003,-1.016
8.923292049540551,-1.016
8.9252896524171,-1.016
8.927287255293647,-1.01
8.929284858170195,-1.012
8.931282461046743,-1.015
8.933280063923291,-1.014
8.93527766679984,-1.012
8.937275269676388,-1.01
8.939272872552936,-1.011
8.941270475429484,-1.01
8.943268078306032,-1.004
8.94526568118258,-1.005
8.947263284059128,-1.006
8.949260886935676,-1.004
8.951258489812224,-0.997
8.953256092688772,-0.992
8.95525369556532,-0.994
8.95725129844187,-0.994
8.959248901318418,-0.993
8.961246504194966,-0.99
8.963244107071514,-0.989
8.965241709948062,-0.986
8.96723931282461,-0.983
8.969236915701158,-0.983
8.971234518577706,-0.98
8.973232121454254,-0.983
8.975229724330802,-0.983
8.97722732720735,-0.981
8.979224930083898,-0.979
8.981222532960446,-0.976
8.983220135836994,-0.977
8.985217738713542,-0.974
8.98721534159009,-0.974
8.989212944466638,-0.971
8.991210547343186,-0.966
8.993208150219736,-0.961
8.995205753096284,-0.955
8.997203355972832,-0.955
8.99920095884938,-0.956
9.001198561725928,-0.956
9.003196164602477,-0.954
9.005193767479025,-0.954
9.007191370355573,-0.952
9.00918897323212,-0.955
9.011186576108669,-0.958
9.013184178985217,-0.953
9.015181781861765,-0.949
9.017179384738313,-0.953
9.01917698761486,-0.951
9.021174590491409,-0.949
9.023172193367957,-0.946
9.025169796244505,-0.942
9.027167399121053,-0.946
9.029165001997601,-0.941
9.031162604874151,-0.931
9.033160207750699,-0.932
9.035157810627247,-0.933
9.037155413503795,-0.93
9.039153016380343,-0.924
9.041150619256891,-0.921
9.04314822213344,-0.917
9.045145825009987,-0.912
9.047143427886535,-0.906
9.049141030763083,-0.901
9.051138633639631,-0.9
9.05313623651618,-0.901
9.055133839392727,-0.898
9.057131442269275,-0.894
9.059129045145824,-0.892
9.061126648022372,-0.885
9.06312425089892,-0.881
9.065121853775468,-0.878
9.067119456652017,-0.873
9.069117059528566,-0.871
9.071114662405114,-0.867
9.073112265281662,-0.863
9.07510986815821,-0.86
9.077107471034758,-0.856
9.079105073911306,-0.849
9.081102676787854,-0.842
9.083100279664402,-0.837
9.08509788254095,-0.831
9.087095485417498,-0.825
9.089093088294046,-0.823
9.091090691170594,-0.82
9.093088294047142,-0.816
9.09508589692369,-0.812
9.097083499800238,-0.805
9.099081102676786,-0.796
9.101078705553334,-0.792
9.103076308429884,-0.787
9.105073911306432,-0.784
9.10707151418298,-0.781
9.109069117059528,-0.775
9.111066719936076,-0.766
9.113064322812624,-0.759
9.115061925689172,-0.754
9.11705952856572,-0.752
9.119057131442268,-0.755
9.121054734318816,-0.749
9.123052337195364,-0.746
9.125049940071913,-0.741
9.12704754294846,-0.732
9.129045145825009,-0.729
9.131042748701557,-0.725
9.133040351578105,-0.727
9.135037954454653,-0.727
9.1370355573312,-0.722
9.13903316020775,-0.716
9.141030763084299,-0.714
9.143028365960847,-0.714
9.145025968837395,-0.712
9.147023571713943,-0.709
9.14902117459049,-0.708
9.151018777467039,-0.702
9.153016380343587,-0.694
9.155013983220135,-0.69
9.157011586096683,-0.685
9.159009188973231,-0.683
9.161006791849779,-0.683
9.163004394726327,-0.682
9.165001997602875,-0.678
9.166999600479423,-0.675
9.168997203355971,-0.68
9.17099480623252,-0.684
9.172992409109067,-0.681
9.174990011985617,-0.68
9.176987614862165,-0.684
9.178985217738713,-0.682
9.180982820615261,-0.678
9.18298042349181,-0.688
9.184978026368357,-0.689
9.186975629244905,-0.691
9.188973232121453,-0.697
9.190970834998001,-0.696
9.19296843787455,-0.696
9.194966040751098,-0.697
9.196963643627646,-0.703
9.198961246504194,-0.711
9.200958849380742,-0.715
9.20295645225729,-0.721
9.204954055133838,-0.727
9.206951658010386,-0.731
9.208949260886934,-0.734
9.210946863763484,-0.745
9.212944466640032,-0.753
9.21494206951658,-0.756
9.216939672393128,-0.766
9.218937275269676,-0.772
9.220934878146224,-0.774
9.222932481022772,-0.782
9.22493008389932,-0.792
9.226927686775868,-0.798
9.228925289652416,-0.804
9.230922892528964,-0.811
9.232920495405512,-0.817
9.23491809828206,-0.824
9.236915701158608,-0.829
9.238913304035156,-0.835
9.240910906911704,-0.84
9.242908509788252,-0.844
9.2449061126648,-0.848
9.24690371554135,-0.852
9.248901318417898,-0.861
9.250898921294446,-0.867
9.252896524170994,-0.873
9.254894127047542,-0.881
9.25689172992409,-0.886
9.258889332800639,-0.889
9.260886935677187,-0.893
9.262884538553735,-0.892
9.264882141430283,-0.893
9.26687974430683,-0.898
9.268877347183379,-0.903
9.270874950059927,-0.903
9.272872552936475,-0.906
9.274870155813023,-0.915
9.276867758689571,-0.92
9.278865361566119,-0.923
9.280862964442667,-0.927
9.282860567319217,-0.929
9.284858170195765,-0.929
9.286855773072313,-0.934
9.288853375948861,-0.936
9.290850978825409,-0.94
9.292848581701957,-0.943
9.294846184578505,-0.94
9.296843787455053,-0.939
9.298841390331601,-0.94
9.30083899320815,-0.945
9.302836596084697,-0.949
9.304834198961245,-0.948
9.306831801837793,-0.949
9.308829404714341,-0.951
9.31082700759089,-0.945
9.312824610467437,-0.948
9.314822213343986,-0.957
9.316819816220534,-0.957
9.318817419097083,-0.955
9.320815021973631,-0.956
9.32281262485018,-0.955
9.324810227726728,-0.958
9.326807830603276,-0.958
9.328805433479824,-0.955
9.330803036356372,-0.957
9.33280063923292,-0.961
9.334798242109468,-0.963
9.336795844986016,-0.962
9.338793447862564,-0.963
9.340791050739112,-0.963
9.34278865361566,-0.964
9.344786256492208,-0.966
9.346783859368756,-0.968
9.348781462245304,-0.966
9.350779065121852,-0.962
9.3527766679984,-0.962
9.35477427087495,-0.963
9.356771873751498,-0.965
9.358769476628046,-0.964
9.360767079504594,-0.962
9.362764682381142,-0.963
9.36476228525769,-0.968
9.366759888134238,-0.97
9.368757491010786,-0.971
9.370755093887334,-0.976
9.372752696763882,-0.975
9.37475029964043,-0.973
9.376747902516978,-0.968
9.378745505393526,-0.969
9.380743108270075,-0.973
9.382740711146623,-0.972
9.38473831402317,-0.972
9.386735916899719,-0.976
9.388733519776267,-0.975
9.390731122652817,-0.97
9.392728725529365,-0.968
9.394726328405913,-0.966
9.39672393128246,-0.964
9.398721534159009,-0.966
9.400719137035557,-0.97
9.402716739912105,-0.969
9.404714342788653,-0.969
9.4067119456652,-0.967
9.408709548541749,-0.967
9.410707151418297,-0.97
9.412704754294845,-0.973
9.414702357171393,-0.973
9.416699960047941,-0.972
9.41869756292449,-0.974
9.420695165801037,-0.977
9.422692768677585,-0.98
9.424690371554133,-0.977
9.426687974430683,-0.978
9.428685577307231,-0.976
9.43068318018378,-0.969
9.432680783060327,-0.966
9.434678385936875,-0.963
9.436675988813423,-0.961
9.438673591689971,-0.965
9.44067119456652,-0.972
9.442668797443067,-0.976
9.444666400319615,-0.978
9.446664003196164,-0.979
9.448661606072712,-0.974
9.45065920894926,-0.974
9.452656811825808,-0.976
9.454654414702356,-0.972
9.456652017578904,-0.974
9.458649620455452,-0.975
9.460647223332,-0.973
9.46264482620855,-0.98
9.464642429085098,-0.982
9.466640031961646,-0.978
9.468637634838194,-0.972
9.470635237714742,-0.97
9.47263284059129,-0.973
9.474630443467838,-0.973
9.476628046344386,-0.974
9.478625649220934,-0.977
9.480623252097482,-0.98
9.48262085497403,-0.978
9.484618457850578,-0.982
9.486616060727126,-0.987
9.488613663603674,-0.985
9.490611266480222,-0.987
9.49260886935677,-0.986
9.494606472233318,-0.985
9.496604075109866,-0.985
9.498601677986416,-0.984
9.500599280862964,-0.982
9.502596883739512,-0.98
9.50459448661606,-0.98
9.506592089492608,-0.981
9.508589692369156,-0.984
9.510587295245704,-0.981
