9.98801438274071,-0.043
9.990011985617258,-0.041
9.992009588493806,-0.038
9.994007191370354,-0.035
9.996004794246902,-0.035
9.99800239712345,-0.037
9.999999999999998,-0.042
10.001997602876546,-0.043
10.003995205753096,-0.041
10.005992808629644,-0.04
10.007990411506192,-0.043
10.00998801438274,-0.041
10.011985617259288,-0.038
10.013983220135836,-0.04
10.015980823012384,-0.038
10.017978425888932,-0.04
10.01997602876548,-0.041
10.021973631642028,-0.038
10.023971234518577,-0.037
10.025968837395125,-0.04
10.027966440271673,-0.038
10.02996404314822,-0.038
10.031961646024769,-0.039
10.033959248901317,-0.037
10.035956851777865,-0.038
10.037954454654413,-0.037
10.039952057530964,-0.04
10.04194966040751,-0.038
10.04394726328406,-0.036
10.045944866160609,-0.038
10.047942469037157,-0.036
10.049940071913705,-0.036
10.051937674790253,-0.033
10.0539352776668,-0.033
10.055932880543349,-0.038
10.057930483419897,-0.037
10.059928086296445,-0.037
10.061925689172991,-0.038
10.06392329204954,-0.038
10.065920894926087,-0.041
10.067918497802635,-0.041
10.069916100679183,-0.041
10.071913703555731,-0.042
10.07391130643228,-0.04
10.07590890930883,-0.041
10.077906512185375,-0.043
10.079904115061924,-0.042
10.081901717938472,-0.037
10.08389932081502,-0.036
10.08589692369157,-0.036
10.087894526568116,-0.034
10.089892129444666,-0.03
10.091889732321214,-0.026
10.093887335197762,-0.024
10.09588493807431,-0.022
10.097882540950858,-0.021
10.099880143827406,-0.018
10.101877746703954,-0.014
10.103875349580502,-0.012
10.10587295245705,-0.014
10.107870555333598,-0.015
10.109868158210146,-0.015
10.111865761086696,-0.015
10.113863363963244,-0.013
10.115860966839792,-0.009
10.11785856971634,-0.01
10.119856172592888,-0.008
10.121853775469436,-0.004
10.123851378345984,-0.001
10.125848981222532,0.001
10.12784658409908,0.004
10.129844186975628,0.006
10.131841789852176,0.004
10.133839392728724,0.003
10.135836995605272,0.005
10.13783459848182,0.011
10.139832201358368,0.017
10.141829804234916,0.021
10.143827407111464,0.021
10.145825009988013,0.022
10.147822612864562,0.018
10.14982021574111,0.021
10.151817818617658,0.025
10.153815421494206,0.019
10.155813024370756,0.016
10.157810627247304,0.011
10.15980823012385,0.007
10.1618058330004,0.008
10.163803435876948,0.004
10.165801038753496,0.004
10.167798641630045,0.004
10.16979624450659,0.004
10.17179384738314,0.004
10.173791450259689,0.003
10.175789053136237,0.001
10.177786656012785,-0.004
10.179784258889333,-0.001
10.18178186176588,0.001
10.183779464642427,0.002
10.185777067518975,0.001
10.187774670395523,-0.005
10.189772273272071,-0.01
10.19176987614862,-0.015
10.193767479025167,-0.015
10.195765081901715,-0.018
10.197762684778263,-0.024
10.199760287654811,-0.026
10.20175789053136,-0.03
10.20375549340791,-0.028
10.205753096284456,-0.032
10.207750699161004,-0.036
10.209748302037552,-0.037
10.211745904914102,-0.041
10.21374350779065,-0.04
10.215741110667198,-0.041
10.217738713543746,-0.041
10.219736316420295,-0.037
10.221733919296843,-0.039
10.223731522173392,-0.043
10.22572912504994,-0.045
10.227726727926488,-0.047
10.229724330803036,-0.046
10.231721933679584,-0.044
10.233719536556132,-0.042
10.23571713943268,-0.041
10.237714742309228,-0.042
10.239712345185776,-0.043
10.241709948062324,-0.042
10.243707550938872,-0.04
10.24570515381542,-0.043
10.247702756691968,-0.044
10.249700359568516,-0.043
10.251697962445064,-0.043
10.253695565321612,-0.046
10.255693168198162,-0.048
10.25769077107471,-0.046
10.259688373951258,-0.044
10.261685976827806,-0.044
10.263683579704354,-0.047
10.265681182580902,-0.045
10.26767878545745,-0.044
10.269676388333998,-0.046
10.271673991210546,-0.046
10.273671594087094,-0.045
10.275669196963642,-0.046
10.27766679984019,-0.048
10.27966440271674,-0.046
10.281662005593288,-0.045
10.283659608469836,-0.05
10.285657211346384,-0.052
10.28765481422293,-0.051
10.28965241709948,-0.051
10.291650019976029,-0.049
10.293647622852577,-0.049
10.295645225729125,-0.054
10.297642828605673,-0.052
10.29964043148222,-0.048
10.301638034358769,-0.045
10.303635637235317,-0.042
10.305633240111865,-0.041
10.307630842988411,-0.036
10.30962844586496,-0.03
10.311626048741507,-0.026
10.313623651618055,-0.025
10.315621254494603,-0.029
10.317618857371151,-0.035
10.3196164602477,-0.041
10.32161406312425,-0.04
10.323611666000795,-0.031
10.325609268877344,-0.02
10.327606871753895,-0.009
10.329604474630443,0.008
10.331602077506991,0.025
10.33359968038354,0.037
10.335597283260087,0.059
10.337594886136635,0.085
10.339592489013183,0.108
10.341590091889731,0.139
10.34358769476628,0.183
10.345585297642828,0.224
10.347582900519376,0.247
10.349580503395924,0.265
10.351578106272472,0.288
10.35357570914902,0.317
10.355573312025568,0.352
10.357570914902116,0.394
10.359568517778664,0.421
10.361566120655212,0.446
10.363563723531762,0.469
10.36556132640831,0.495
10.367558929284858,0.524
10.369556532161406,0.546
10.371554135037954,0.56
10.373551737914502,0.564
10.37554934079105,0.562
10.377546943667598,0.544
10.379544546544146,0.526
10.381542149420694,0.505
10.383539752297242,0.465
10.38553735517379,0.421
10.387534958050338,0.381
10.389532560926886,0.334
10.391530163803434,0.274
10.393527766679982,0.221
10.39552536955653,0.177
10.397522972433078,0.134
10.399520575309628,0.093
10.401518178186176,0.054
10.403515781062724,0.018
10.405513383939272,-0.001
10.40751098681582,0.008
10.409508589692368,0.017
10.411506192568917,0.009
10.413503795445465,-0.004
10.415501398322013,-0.014
10.41749900119856,-0.015
10.419496604075109,-0.018
10.421494206951657,-0.022
10.423491809828205,-0.024
10.425489412704753,-0.028
10.4274870155813,-0.033
10.429484618457847,-0.039
10.431482221334395,-0.044
10.433479824210943,-0.042
10.435477427087497,-0.043
10.437475029964045,-0.042
10.439472632840593,-0.043
10.44147023571714,-0.049
10.443467838593689,-0.048
10.445465441470237,-0.05
10.447463044346785,-0.05
10.449460647223331,-0.046
10.45145825009988,-0.046
10.453455852976427,-0.045
10.455453455852975,-0.043
10.457451058729523,-0.04
10.459448661606071,-0.035
10.46144626448262,-0.035
10.463443867359167,-0.035
10.465441470235715,-0.034
10.467439073112264,-0.038
10.469436675988812,-0.042
10.47143427886536,-0.041
10.47343188174191,-0.039
10.475429484618456,-0.04
10.477427087495006,-0.04
10.479424690371554,-0.04
10.481422293248102,-0.04
10.48341989612465,-0.042
10.485417499001198,-0.041
10.487415101877746,-0.035
10.489412704754294,-0.033
10.491410307630842,-0.032
10.49340791050739,-0.033
10.495405513383938,-0.034
10.497403116260486,-0.035
10.499400719137034,-0.034
10.501398322013582,-0.035
10.50339592489013,-0.03
10.505393527766678,-0.031
10.507391130643228,-0.035
10.509388733519776,-0.033
10.511386336396324,-0.033
10.513383939272872,-0.031
10.51538154214942,-0.029
10.517379145025968,-0.03
10.519376747902516,-0.033
10.521374350779064,-0.035
10.523371953655612,-0.038
10.52536955653216,-0.037
10.527367159408708,-0.035
10.529364762285256,-0.036
10.531362365161804,-0.037
10.533359968038353,-0.037
10.5353575709149,-0.037
10.537355173791449,-0.038
10.539352776667997,-0.036
10.541350379544545,-0.034
10.543347982421094,-0.032
10.545345585297644,-0.03
10.54734318817419,-0.034
10.54934079105074,-0.031
10.551338393927288,-0.027
10.553335996803836,-0.027
10.555333599680385,-0.025
10.55733120255693,-0.024
10.55932880543348,-0.028
10.561326408310029,-0.029
10.563324011186577,-0.03
10.565321614063125,-0.034
10.567319216939673,-0.034
10.56931681981622,-0.034
10.571314422692769,-0.033
10.573312025569315,-0.035
10.575309628445863,-0.039
10.577307231322411,-0.038
10.57930483419896,-0.035
10.581302437075507,-0.033
10.583300039952055,-0.029
10.585297642828603,-0.026
10.587295245705151,-0.033
10.5892928485817,-0.035
10.59129045145825,-0.029
10.593288054334796,-0.026
10.595285657211344,-0.028
10.597283260087892,-0.029
10.59928086296444,-0.029
10.60127846584099,-0.029
10.603276068717538,-0.03
10.605273671594086,-0.03
10.607271274470634,-0.033
10.609268877347182,-0.033
10.61126648022373,-0.032
10.613264083100278,-0.029
10.615261685976828,-0.026
10.617259288853376,-0.023
10.619256891729924,-0.025
10.621254494606472,-0.031
10.62325209748302,-0.03
10.625249700359568,-0.032
10.627247303236116,-0.035
10.629244906112664,-0.031
10.631242508989212,-0.029
10.63324011186576,-0.029
10.635237714742308,-0.025
10.637235317618856,-0.023
10.639232920495404,-0.025
10.641230523371952,-0.026
10.6432281262485,-0.026
10.645225729125048,-0.028
10.647223332001596,-0.024
10.649220934878144,-0.02
10.651218537754692,-0.022
10.653216140631242,-0.023
10.65521374350779,-0.025
10.657211346384338,-0.026
10.659208949260886,-0.027
10.661206552137434,-0.024
10.663204155013982,-0.021
10.66520175789053,-0.022
10.66719936076708,-0.024
10.669196963643628,-0.024
10.671194566520176,-0.025
10.673192169396724,-0.03
10.67518977227327,-0.029
10.67718737514982,-0.028
10.679184978026369,-0.029
10.681182580902917,-0.025
10.683180183779465,-0.024
10.685177786656013,-0.02
10.68717538953256,-0.017
10.689172992409109,-0.021
10.691170595285657,-0.021
10.693168198162205,-0.021
10.695165801038751,-0.024
10.6971634039153,-0.022
10.699161006791847,-0.019
10.701158609668395,-0.019
10.703156212544943,-0.019
10.705153815421491,-0.018
10.70715141829804,-0.016
10.70914902117459,-0.018
10.711146624051135,-0.018
10.713144226927684,-0.015
10.715141829804232,-0.015
10.71713943268078,-0.013
10.71913703555733,-0.018
10.721134638433876,-0.02
10.723132241310426,-0.018
10.725129844186975,-0.016
10.727127447063523,-0.014
10.729125049940071,-0.013
10.73112265281662,-0.015
10.733120255693168,-0.017
10.735117858569716,-0.017
10.737115461446264,-0.016
10.739113064322812,-0.012
10.74111066719936,-0.009
10.743108270075908,-0.007
10.745105872952456,-0.005
10.747103475829004,-0.006
10.749101078705552,-0.006
10.7510986815821,-0.004
10.753096284458648,-0.001
10.755093887335196,0.001
10.757091490211744,0.001
10.759089093088292,-0.001
10.761086695964842,0.002
10.76308429884139,0.006
10.765081901717938,0.007
10.767079504594486,0.007
10.769077107471034,0.007
10.771074710347582,0.008
10.77307231322413,0.008
10.775069916100678,0.011
10.777067518977226,0.013
10.779065121853774,0.012
10.781062724730322,0.015
10.78306032760687,0.015
10.785057930483418,0.014
10.787055533359966,0.016
10.789053136236516,0.018
10.791050739113064,0.02
10.79304834198961,0.022
10.79504594486616,0.023
10.797043547742708,0.026
10.799041150619257,0.026
10.801038753495805,0.025
10.803036356372353,0.026
10.8050339592489,0.028
10.807031562125449,0.028
10.809029165001997,0.028
10.811026767878545,0.022
10.813024370755093,0.022
10.81502197363164,0.025
10.817019576508187,0.023
10.819017179384735,0.029
10.821014782261283,0.035
10.823012385137831,0.037
10.82500998801438,0.041
10.82700759089093,0.046
10.829005193767475,0.048
10.831002796644023,0.05
10.833000399520577,0.052
10.834998002397125,0.053
10.836995605273671,0.054
10.83899320815022,0.054
10.840990811026767,0.055
10.842988413903315,0.059
10.844986016779863,0.06
10.846983619656411,0.061
10.84898122253296,0.062
10.850978825409507,0.064
10.852976428286055,0.064
10.854974031162604,0.063
10.856971634039152,0.068
10.8589692369157,0.07
10.860966839792248,0.074
10.862964442668796,0.075
10.864962045545344,0.07
10.866959648421892,0.067
10.868957251298442,0.066
10.87095485417499,0.068
10.872952457051538,0.069
10.874950059928086,0.07
10.876947662804634,0.072
10.878945265681182,0.071
10.88094286855773,0.073
10.882940471434278,0.074
10.884938074310826,0.073
10.886935677187374,0.076
10.888933280063922,0.076
10.89093088294047,0.075
10.892928485817018,0.076
10.894926088693566,0.075
10.896923691570114,0.078
10.898921294446662,0.082
10.90091889732321,0.083
10.902916500199758,0.083
10.904914103076308,0.083
10.906911705952856,0.086
10.908909308829404,0.088
10.910906911705952,0.088
10.9129045145825,0.089
10.914902117459048,0.089
10.916899720335596,0.091
10.918897323212144,0.088
10.920894926088693,0.087
10.92289252896524,0.087
10.924890131841789,0.085
10.926887734718337,0.086
10.928885337594885,0.086
10.930882940471433,0.086
10.93288054334798,0.086
10.934878146224529,0.084
10.936875749101077,0.084
10.938873351977623,0.083
10.940870954854176,0.083
10.942868557730725,0.082
10.94486616060727,0.081
10.94686376348382,0.079
10.948861366360369,0.073
10.950858969236917,0.07
10.952856572113465,0.066
10.954854174990013,0.065
10.95685177786656,0.063
10.958849380743109,0.057
10.960846983619655,0.051
10.962844586496203,0.049
10.964842189372751,0.049
10.9668397922493,0.046
10.968837395125847,0.043
10.970834998002395,0.038
10.972832600878943,0.035
10.974830203755491,0.034
10.97682780663204,0.032
10.97882540950859,0.031
10.980823012385136,0.029
10.982820615261684,0.025
10.984818218138232,0.025
10.98681582101478,0.021
10.98881342389133,0.018
10.990811026767878,0.017
10.992808629644426,0.015
10.994806232520974,0.015
10.996803835397522,0.014
10.99880143827407,0.011
11.000799041150618,0.009
11.002796644027166,0.004
11.004794246903714,0.005
11.006791849780262,0.011
11.00878945265681,0.01
11.010787055533358,0.003
11.012784658409908,-0.001
11.014782261286456,-0.003
11.016779864163004,-0.002
11.018777467039552,0.0
11.0207750699161,-0.003
11.022772672792648,-0.006
11.024770275669196,-0.009
11.026767878545744,-0.009
11.028765481422292,-0.009
11.03076308429884,-0.009
11.032760687175388,-0.004
11.034758290051936,-0.004
11.036755892928484,-0.007
11.038753495805032,-0.009
11.04075109868158,-0.013
11.042748701558128,-0.013
11.044746304434677,-0.015
11.046743907311225,-0.017
11.048741510187774,-0.017
11.050739113064322,-0.017
11.05273671594087,-0.017
11.05473431881742,-0.021
11.056731921693968,-0.021
11.058729524570516,-0.019
11.060727127447064,-0.019
11.06272473032361,-0.018
11.06472233320016,-0.021
11.066719936076709,-0.019
11.068717538953257,-0.02
11.070715141829805,-0.019
11.072712744706353,-0.018
11.0747103475829,-0.02
11.076707950459449,-0.021
11.078705553335997,-0.024
11.080703156212545,-0.026
11.082700759089091,-0.026
11.08469836196564,-0.025
11.086695964842187,-0.021
11.088693567718735,-0.019
11.090691170595283,-0.022
11.092688773471831,-0.025
11.09468637634838,-0.022
11.09668397922493,-0.02
11.098681582101475,-0.022
11.100679184978024,-0.023
11.102676787854572,-0.022
11.10467439073112,-0.022
11.10667199360767,-0.025
11.108669596484216,-0.027
11.110667199360766,-0.026
11.112664802237314,-0.027
11.114662405113862,-0.025
11.11666000799041,-0.022
11.118657610866958,-0.025
11.120655213743508,-0.025
11.122652816620056,-0.022
11.124650419496604,-0.021
11.126648022373152,-0.022
11.1286456252497,-0.021
11.130643228126248,-0.02
11.132640831002796,-0.021
11.134638433879344,-0.021
11.136636036755892,-0.023
11.13863363963244,-0.023
11.140631242508988,-0.023
11.142628845385536,-0.023
11.144626448262084,-0.021
11.146624051138632,-0.019
11.14862165401518,-0.018
11.150619256891728,-0.017
11.152616859768276,-0.017
11.154614462644824,-0.016
11.156612065521374,-0.015
11.158609668397922,-0.019
11.16060727127447,-0.021
11.162604874151018,-0.022
11.164602477027566,-0.022
11.166600079904114,-0.023
11.168597682780662,-0.024
11.17059528565721,-0.023
11.172592888533758,-0.023
11.174590491410306,-0.023
11.176588094286856,-0.023
11.178585697163404,-0.021
11.18058330003995,-0.02
11.1825809029165,-0.022
11.184578505793048,-0.021
11.186576108669597,-0.019
11.188573711546145,-0.021
11.19057131442269,-0.021
11.19256891729924,-0.019
11.194566520175789,-0.02
11.196564123052337,-0.022
11.198561725928885,-0.024
11.200559328805433,-0.026
11.20255693168198,-0.027
11.204554534558527,-0.029
11.206552137435075,-0.029
11.208549740311623,-0.028
11.210547343188171,-0.026
11.21254494606472,-0.025
11.21454254894127,-0.027
11.216540151817815,-0.027
11.218537754694363,-0.026
11.220535357570911,-0.026
11.22253296044746,-0.026
11.22453056332401,-0.025
11.226528166200556,-0.022
11.228525769077107,-0.019
11.230523371953655,-0.02
11.232520974830203,-0.02
11.234518577706751,-0.021
11.2365161805833,-0.023
11.238513783459847,-0.025
11.240511386336395,-0.025
11.242508989212944,-0.023
11.244506592089492,-0.025
11.24650419496604,-0.025
11.248501797842588,-0.024
11.250499400719136,-0.022
11.252497003595684,-0.027
11.254494606472232,-0.029
11.25649220934878,-0.028
11.258489812225328,-0.028
11.260487415101876,-0.025
11.262485017978424,-0.026
11.264482620854974,-0.023
11.266480223731522,-0.021
11.26847782660807,-0.021
11.270475429484618,-0.022
11.272473032361166,-0.023
11.274470635237714,-0.022
11.276468238114262,-0.021
11.27846584099081,-0.019
11.280463443867358,-0.02
11.282461046743906,-0.023
11.284458649620454,-0.025
11.286456252497002,-0.022
11.28845385537355,-0.023
11.290451458250098,-0.023
11.292449061126646,-0.023
11.294446664003194,-0.024
11.296444266879742,-0.023
11.29844186975629,-0.022
11.30043947263284,-0.019
11.302437075509388,-0.018
11.304434678385936,-0.019
11.306432281262484,-0.019
11.308429884139032,-0.019
11.31042748701558,-0.015
11.312425089892129,-0.013
11.314422692768677,-0.015
11.316420295645225,-0.018
11.318417898521773,-0.02
11.32041550139832,-0.019
11.322413104274869,-0.018
11.324410707151417,-0.02
11.326408310027965,-0.023
11.328405912904511,-0.022
11.33040351578106,-0.02
11.332401118657607,-0.019
11.334398721534155,-0.021
11.336396324410709,-0.02
11.338393927287257,-0.019
11.340391530163805,-0.021
11.342389133040353,-0.022
11.3443867359169,-0.024
11.346384338793449,-0.023
11.348381941669995,-0.021
11.350379544546543,-0.019
11.352377147423091,-0.019
11.35437475029964,-0.018
11.356372353176187,-0.021
11.358369956052735,-0.022
11.360367558929283,-0.02
11.362365161805831,-0.02
11.36436276468238,-0.02
11.366360367558928,-0.02
11.368357970435476,-0.019
11.370355573312024,-0.018
11.372353176188572,-0.02
11.37435077906512,-0.021
11.37634838194167,-0.022
11.378345984818218,-0.02
11.380343587694766,-0.018
11.382341190571314,-0.019
11.384338793447862,-0.021
11.38633639632441,-0.024
11.388333999200958,-0.018
11.390331602077506,-0.015
11.392329204954054,-0.015
11.394326807830602,-0.013
11.39632441070715,-0.017
11.398322013583698,-0.018
11.400319616460246,-0.021
11.402317219336794,-0.021
11.404314822213342,-0.019
11.40631242508989,-0.021
11.40831002796644,-0.02
11.410307630842988,-0.024
11.412305233719536,-0.026
11.414302836596084,-0.023
11.416300439472632,-0.021
11.41829804234918,-0.02
11.420295645225728,-0.02
11.422293248102276,-0.02
11.424290850978824,-0.024
11.426288453855372,-0.023
11.42828605673192,-0.018
11.430283659608468,-0.012
11.432281262485017,-0.009
11.434278865361565,-0.009
11.436276468238113,-0.009
11.43827407111466,-0.012
11.440271673991209,-0.015
11.442269276867757,-0.014
11.444266879744308,-0.012
11.446264482620856,-0.013
11.448262085497404,-0.018
11.45025968837395,-0.019
11.4522572912505,-0.015
11.454254894127049,-0.015
11.456252497003597,-0.016
11.458250099880145,-0.015
11.460247702756693,-0.015
11.46224530563324,-0.015
11.464242908509789,-0.015
11.466240511386337,-0.017
11.468238114262885,-0.015
11.470235717139431,-0.01
11.47223332001598,-0.009
11.474230922892527,-0.013
11.476228525769075,-0.014
11.478226128645623,-0.013
11.480223731522171,-0.013
11.48222133439872,-0.013
11.48421893727527,-0.015
11.486216540151815,-0.017
11.488214143028364,-0.016
11.490211745904912,-0.016
11.49220934878146,-0.016
11.49420695165801,-0.017
11.496204554534556,-0.019
11.498202157411106,-0.019
11.500199760287654,-0.015
11.502197363164202,-0.016
11.50419496604075,-0.017
11.506192568917298,-0.019
11.508190171793846,-0.02
11.510187774670394,-0.02
11.512185377546942,-0.019
11.51418298042349,-0.017
11.516180583300038,-0.015
11.518178186176588,-0.019
11.520175789053136,-0.022
11.522173391929684,-0.022
11.524170994806232,-0.023
11.52616859768278,-0.023
11.528166200559328,-0.022
11.530163803435876,-0.022
11.532161406312424,-0.024
11.534159009188972,-0.022
11.53615661206552,-0.02
11.538154214942068,-0.016
11.540151817818616,-0.013
11.542149420695164,-0.013
11.544147023571712,-0.013
11.54614462644826,-0.015
11.548142229324808,-0.013
11.550139832201356,-0.016
11.552137435077904,-0.017
11.554135037954454,-0.018
11.556132640831002,-0.019
11.55813024370755,-0.019
11.560127846584098,-0.02
11.562125449460646,-0.021
11.564123052337196,-0.021
11.566120655213744,-0.021
11.56811825809029,-0.023
11.57011586096684,-0.023
11.572113463843388,-0.023
11.574111066719937,-0.026
11.576108669596485,-0.027
11.57810627247303,-0.031
11.58010387534958,-0.031
11.582101478226129,-0.029
11.584099081102677,-0.03
11.586096683979225,-0.028
11.588094286855773,-0.025
11.59009188973232,-0.021
11.592089492608867,-0.022
11.594087095485415,-0.024
11.596084698361963,-0.024
11.598082301238511,-0.025
11.60007990411506,-0.025
11.60207750699161,-0.024
11.604075109868155,-0.025
11.606072712744703,-0.027
11.608070315621251,-0.027
11.6100679184978,-0.029
11.61206552137435,-0.027
11.614063124250896,-0.029
11.616060727127444,-0.028
11.618058330003992,-0.027
11.620055932880542,-0.028
11.62205353575709,-0.022
11.624051138633638,-0.025
11.626048741510187,-0.026
11.628046344386735,-0.021
11.630043947263283,-0.021
11.632041550139832,-0.021
11.63403915301638,-0.021
11.636036755892928,-0.019
11.638034358769476,-0.019
11.640031961646024,-0.021
11.642029564522572,-0.021
11.64402716739912,-0.02
11.646024770275668,-0.018
11.648022373152216,-0.018
11.650019976028764,-0.021
11.652017578905312,-0.021
11.65401518178186,-0.023
11.656012784658408,-0.024
11.658010387534956,-0.021
11.660007990411504,-0.019
11.662005593288054,-0.02
11.664003196164602,-0.019
11.66600079904115,-0.019
11.667998401917698,-0.022
11.669996004794246,-0.021
11.671993607670794,-0.019
11.673991210547342,-0.018
11.67598881342389,-0.018
11.677986416300438,-0.022
11.679984019176986,-0.025
11.681981622053534,-0.024
11.683979224930082,-0.022
11.68597682780663,-0.024
11.68797443068318,-0.024
11.689972033559728,-0.024
11.691969636436276,-0.025
11.693967239312824,-0.026
11.69596484218937,-0.026
11.69796244506592,-0.028
11.699960047942469,-0.028
11.701957650819017,-0.026
11.703955253695565,-0.026
11.705952856572113,-0.026
11.70795045944866,-0.026
11.709948062325209,-0.024
11.711945665201757,-0.024
11.713943268078305,-0.026
11.715940870954851,-0.026
11.7179384738314,-0.026
11.719936076707947,-0.025
11.721933679584495,-0.022
11.723931282461043,-0.024
11.725928885337591,-0.024
11.72792648821414,-0.02
11.72992409109069,-0.016
11.731921693967235,-0.016
11.733919296843789,-0.013
11.735916899720335,-0.011
11.737914502596883,-0.013
11.739912105473431,-0.014
11.74190970834998,-0.018
11.743907311226527,-0.022
11.745904914103075,-0.022
11.747902516979623,-0.022
11.749900119856171,-0.024
11.75189772273272,-0.023
11.753895325609268,-0.022
11.755892928485816,-0.025
11.757890531362364,-0.029
11.759888134238912,-0.029
11.76188573711546,-0.026
11.763883339992008,-0.029
11.765880942868556,-0.029
11.767878545745104,-0.026
11.769876148621654,-0.029
11.771873751498202,-0.029
11.77387135437475,-0.027
11.775868957251298,-0.025
11.777866560127846,-0.021
11.779864163004394,-0.022
11.781861765880942,-0.024
11.78385936875749,-0.022
11.785856971634038,-0.024
11.787854574510586,-0.021
11.789852177387134,-0.017
11.791849780263682,-0.017
11.79384738314023,-0.017
11.795844986016778,-0.018
11.797842588893326,-0.019
11.799840191769874,-0.019
11.801837794646422,-0.02
11.80383539752297,-0.019
11.80583300039952,-0.021
11.807830603276068,-0.018
11.809828206152616,-0.018
11.811825809029164,-0.02
11.813823411905712,-0.019
11.81582101478226,-0.02
11.817818617658808,-0.022
11.819816220535357,-0.021
11.821813823411905,-0.021
11.823811426288453,-0.02
11.825809029165,-0.02
11.827806632041549,-0.021
11.829804234918097,-0.019
11.831801837794645,-0.02
11.833799440671193,-0.019
11.83579704354774,-0.018
11.837794646424287,-0.021
11.839792249300835,-0.022
11.841789852177389,-0.024
11.843787455053937,-0.019
11.845785057930485,-0.017
11.847782660807033,-0.02
11.84978026368358,-0.018
11.851777866560129,-0.019
11.853775469436677,-0.021
11.855773072313225,-0.019
11.857770675189771,-0.018
11.85976827806632,-0.017
11.861765880942867,-0.015
11.863763483819415,-0.014
11.865761086695963,-0.014
11.867758689572511,-0.013
11.86975629244906,-0.015
11.871753895325607,-0.015
11.873751498202155,-0.015
11.875749101078704,-0.014
11.877746703955252,-0.015
11.8797443068318,-0.018
11.88174190970835,-0.016
11.883739512584896,-0.015
11.885737115461446,-0.012
11.887734718337994,-0.009
11.889732321214542,-0.011
11.89172992409109,-0.014
11.893727526967638,-0.017
11.895725129844186,-0.013
11.897722732720734,-0.011
11.899720335597282,-0.013
11.90171793847383,-0.011
11.903715541350378,-0.009
11.905713144226926,-0.013
11.907710747103474,-0.013
11.909708349980022,-0.014
11.91170595285657,-0.012
11.91370355573312,-0.01
11.915701158609668,-0.011
11.917698761486216,-0.009
11.919696364362764,-0.009
11.921693967239312,-0.004
11.92369157011586,0.001
11.925689172992408,0.004
11.927686775868956,0.005
11.929684378745504,0.008
11.931681981622052,0.011
11.9336795844986,0.011
11.935677187375148,0.01
11.937674790251696,0.012
11.939672393128244,0.018
11.941669996004793,0.021
11.94366759888134,0.018
11.945665201757889,0.015
11.947662804634437,0.016
11.949660407510986,0.021
11.951658010387536,0.022
11.953655613264084,0.026
11.95565321614063,0.029
11.95765081901718,0.029
11.959648421893728,0.029
11.961646024770276,0.029
11.963643627646825,0.029
11.96564123052337,0.029
11.96763883339992,0.028
11.969636436276469,0.03
11.971634039153017,0.036
11.973631642029565,0.038
11.975629244906113,0.038
11.97762684778266,0.037
11.979624450659207,0.039
11.981622053535755,0.044
11.983619656412303,0.049
11.985617259288851,0.043
11.9876148621654,0.036
11.989612465041947,0.038
11.991610067918495,0.035
11.993607670795043,0.033
11.995605273671591,0.029
11.99760287654814,0.025
11.99960047942469,0.025
12.001598082301236,0.022
12.003595685177784,0.021
12.005593288054332,0.019
12.00759089093088,0.017
12.00958849380743,0.013
12.011586096683978,0.009
12.013583699560526,0.007
12.015581302437074,0.005
12.017578905313622,0.005
12.01957650819017,0.004
12.02157411106672,0.001
12.023571713943268,-0.004
12.025569316819816,-0.005
12.027566919696364,-0.007
12.029564522572912,-0.011
12.03156212544946,-0.013
12.033559728326008,-0.013
12.035557331202556,-0.013
12.037554934079104,-0.018
12.039552536955652,-0.019
12.0415501398322,-0.018
12.043547742708748,-0.021
12.045545345585296,-0.023
12.047542948461844,-0.025
12.049540551338392,-0.028
12.05153815421494,-0.03
12.053535757091488,-0.03
12.055533359968036,-0.03
12.057530962844586,-0.03
12.059528565721134,-0.031
12.061526168597682,-0.03
12.06352377147423,-0.031
12.065521374350778,-0.035
12.067518977227326,-0.035
12.069516580103874,-0.036
12.071514182980422,-0.035
12.07351178585697,-0.035
12.07550938873352,-0.036
12.077506991610068,-0.038
12.079504594486616,-0.04
12.081502197363164,-0.038
12.08349980023971,-0.04
12.08549740311626,-0.04
12.087495005992809,-0.04
12.089492608869357,-0.041
12.091490211745905,-0.042
12.093487814622453,-0.043
12.095485417499,-0.043
12.097483020375549,-0.043
12.099480623252097,-0.038
12.101478226128645,-0.036
12.103475829005191,-0.037
12.10547343188174,-0.034
12.107471034758287,-0.036
12.109468637634835,-0.04
12.111466240511383,-0.042
12.113463843387931,-0.041
12.11546144626448,-0.037
12.11745904914103,-0.038
12.119456652017575,-0.042
12.121454254894124,-0.041
12.123451857770672,-0.04
12.12544946064722,-0.043
12.12744706352377,-0.041
12.12944466640032,-0.042
12.131442269276867,-0.04
12.133439872153415,-0.038
12.135437475029963,-0.037
12.137435077906511,-0.032
12.13943268078306,-0.028
12.141430283659608,-0.019
12.143427886536156,-0.018
12.145425489412704,-0.018
12.147423092289252,-0.019
12.1494206951658,-0.025
12.151418298042348,-0.03
12.153415900918896,-0.033
12.155413503795444,-0.026
12.157411106671992,-0.014
12.15940870954854,-0.002
12.161406312425088,0.018
12.163403915301636,0.038
12.165401518178186,0.057
12.167399121054734,0.078
12.169396723931282,0.098
12.17139432680783,0.122
12.173391929684378,0.155
12.175389532560926,0.202
12.177387135437474,0.249
12.179384738314022,0.279
12.18138234119057,0.294
12.183379944067118,0.319
12.185377546943666,0.351
12.187375149820214,0.391
12.189372752696762,0.436
12.19137035557331,0.471
12.193367958449858,0.504
12.195365561326406,0.526
12.197363164202956,0.551
12.199360767079504,0.58
12.201358369956052,0.6
12.2033559728326,0.619
12.205353575709148,0.621
12.207351178585697,0.617
12.209348781462245,0.593
12.211346384338793,0.565
12.21334398721534,0.54
12.215341590091889,0.497
12.217339192968437,0.456
12.219336795844985,0.41
12.221334398721533,0.358
12.22333200159808,0.303
12.225329604474627,0.249
12.227327207351175,0.202
12.229324810227723,0.157
12.231322413104271,0.112
12.23332001598082,0.075
12.23531761885737,0.042
12.23731522173392,0.022
12.239312824610469,0.03
12.241310427487017,0.029
12.243308030363565,0.019
12.245305633240111,0.012
12.24730323611666,0.005
12.249300838993207,0.004
12.251298441869755,-0.003
12.253296044746303,-0.013
12.255293647622851,-0.021
12.2572912504994,-0.025
12.259288853375947,-0.025
12.261286456252495,-0.03
12.263284059129044,-0.032
12.265281662005592,-0.032
12.26727926488214,-0.032
12.269276867758688,-0.028
12.271274470635236,-0.03
12.273272073511784,-0.03
12.275269676388334,-0.03
12.277267279264882,-0.03
12.27926488214143,-0.026
12.281262485017978,-0.028
12.283260087894526,-0.029
12.285257690771074,-0.025
12.287255293647622,-0.025
12.28925289652417,-0.025
12.291250499400718,-0.023
12.293248102277266,-0.024
12.295245705153814,-0.022
12.297243308030362,-0.024
12.29924091090691,-0.024
12.301238513783458,-0.021
12.303236116660006,-0.024
12.305233719536554,-0.026
12.307231322413102,-0.026
12.30922892528965,-0.029
12.3112265281662,-0.028
12.313224131042748,-0.027
12.315221733919296,-0.025
12.317219336795844,-0.024
12.319216939672392,-0.025
12.32121454254894,-0.024
12.323212145425488,-0.026
12.325209748302036,-0.026
12.327207351178584,-0.023
12.329204954055133,-0.023
12.33120255693168,-0.024
12.333200159808229,-0.025
12.335197762684777,-0.021
12.337195365561325,-0.019
12.339192968437873,-0.018
12.34119057131442,-0.017
12.343188174190969,-0.017
12.345185777067517,-0.015
12.347183379944068,-0.017
12.349180982820616,-0.018
12.351178585697165,-0.019
12.35317618857371,-0.021
12.35517379145026,-0.021
12.357171394326809,-0.023
12.359168997203357,-0.027
12.361166600079905,-0.03
12.363164202956453,-0.032
12.365161805833,-0.03
12.367159408709549,-0.029
12.369157011586095,-0.027
12.371154614462643,-0.025
12.373152217339191,-0.022
12.37514982021574,-0.021
12.377147423092287,-0.021
12.379145025968835,-0.021
12.381142628845383,-0.026
12.383140231721931,-0.026
12.38513783459848,-0.025
12.38713543747503,-0.027
12.389133040351576,-0.026
12.391130643228124,-0.027
12.393128246104672,-0.029
12.39512584898122,-0.031
12.39712345185777,-0.03
12.399121054734318,-0.03
12.401118657610866,-0.028
12.403116260487414,-0.028
12.405113863363962,-0.027
12.40711146624051,-0.025
12.409109069117058,-0.024
12.411106671993606,-0.022
12.413104274870154,-0.024
12.415101877746702,-0.024
12.41709948062325,-0.021
12.4190970834998,-0.02
12.421094686376348,-0.02
12.423092289252896,-0.021
12.425089892129444,-0.019
12.427087495005992,-0.02
12.42908509788254,-0.017
12.431082700759088,-0.013
12.433080303635636,-0.019
12.435077906512184,-0.022
12.437075509388732,-0.025
12.43907311226528,-0.029
12.441070715141828,-0.032
12.443068318018376,-0.033
12.445065920894924,-0.028
12.447063523771472,-0.029
12.44906112664802,-0.028
12.451058729524568,-0.028
12.453056332401117,-0.03
12.455053935277666,-0.03
12.457051538154214,-0.028
12.459049141030762,-0.022
12.46104674390731,-0.022
12.46304434678386,-0.025
12.465041949660408,-0.026
12.467039552536956,-0.026
12.469037155413504,-0.026
12.47103475829005,-0.026
12.4730323611666,-0.026
12.475029964043149,-0.024
12.477027566919697,-0.021
12.479025169796245,-0.024
12.481022772672793,-0.024
12.48302037554934,-0.021
12.485017978425889,-0.02
12.487015581302437,-0.019
12.489013184178985,-0.021
12.491010787055531,-0.021
12.49300838993208,-0.021
12.495005992808627,-0.02
12.497003595685175,-0.019
12.499001198561723,-0.02
12.500998801438271,-0.018
12.50299640431482,-0.016
12.50499400719137,-0.015
12.506991610067915,-0.015
12.508989212944464,-0.013
12.510986815821012,-0.012
12.51298441869756,-0.015
12.51498202157411,-0.013
12.516979624450656,-0.015
12.518977227327206,-0.017
12.520974830203754,-0.017
12.522972433080302,-0.016
12.52497003595685,-0.017
12.5269676388334,-0.016
12.528965241709948,-0.017
12.530962844586496,-0.018
12.532960447463044,-0.015
12.534958050339592,-0.015
12.53695565321614,-0.017
12.538953256092688,-0.018
12.540950858969236,-0.015
12.542948461845784,-0.015
12.544946064722332,-0.015
12.54694366759888,-0.013
12.548941270475428,-0.011
12.550938873351976,-0.009
12.552936476228524,-0.009
12.554934079105072,-0.009
12.55693168198162,-0.009
12.558929284858168,-0.007
12.560926887734716,-0.005
12.562924490611266,-0.009
12.564922093487814,-0.006
12.566919696364362,-0.003
12.56891729924091,-0.003
12.570914902117458,-0.003
12.572912504994006,-0.005
12.574910107870554,-0.006
12.576907710747102,-0.006
12.57890531362365,-0.001
12.580902916500198,0.001
12.582900519376746,0.001
12.584898122253296,0.004
12.586895725129844,0.002
12.58889332800639,-0.001
12.59089093088294,0.003
12.592888533759488,0.005
12.594886136636037,0.008
12.596883739512585,0.009
12.598881342389133,0.009
12.60087894526568,0.013
12.602876548142229,0.013
12.604874151018777,0.013
12.606871753895325,0.018
12.608869356771873,0.018
12.61086695964842,0.016
12.612864562524967,0.018
12.614862165401515,0.015
12.616859768278063,0.017
12.618857371154611,0.021
12.62085497403116,0.02
12.62285257690771,0.019
12.624850179784255,0.021
12.626847782660803,0.024
12.628845385537351,0.025
12.6308429884139,0.025
12.63284059129045,0.027
12.634838194167,0.03
12.636835797043547,0.03
12.638833399920095,0.032
12.640831002796643,0.034
12.642828605673191,0.036
12.64482620854974,0.037
12.646823811426287,0.041
12.648821414302835,0.042
12.650819017179384,0.042
12.652816620055932,0.042
12.65481422293248,0.044
12.656811825809028,0.051
12.658809428685576,0.052
12.660807031562124,0.052
12.662804634438672,0.052
12.66480223731522,0.053
12.666799840191768,0.056
12.668797443068316,0.056
12.670795045944866,0.059
12.672792648821414,0.066
12.674790251697962,0.07
12.67678785457451,0.066
12.678785457451058,0.065
12.680783060327606,0.067
12.682780663204154,0.069
12.684778266080702,0.069
12.68677586895725,0.07
12.688773471833798,0.072
12.690771074710346,0.072
12.692768677586894,0.072
12.694766280463442,0.07
12.69676388333999,0.07
12.698761486216538,0.072
12.700759089093086,0.073
12.702756691969634,0.077
12.704754294846182,0.08
12.706751897722732,0.081
12.70874950059928,0.084
12.710747103475828,0.084
12.712744706352376,0.083
12.714742309228924,0.081
12.716739912105472,0.081
12.71873751498202,0.082
12.720735117858569,0.086
12.722732720735117,0.086
12.724730323611665,0.088
12.726727926488213,0.09
12.72872552936476,0.089
12.730723132241309,0.087
12.732720735117857,0.083
12.734718337994403,0.08
12.736715940870951,0.081
12.7387135437475,0.081
12.740711146624047,0.08
12.7427087495006,0.08
12.744706352377149,0.081
12.746703955253697,0.084
12.748701558130245,0.086
12.750699161006793,0.087
12.75269676388334,0.086
12.754694366759889,0.086
12.756691969636435,0.086
12.758689572512983,0.082
12.760687175389531,0.081
12.76268477826608,0.085
12.764682381142627,0.084
12.766679984019175,0.085
12.768677586895723,0.086
12.770675189772271,0.081
12.77267279264882,0.074
12.774670395525368,0.072
12.776667998401916,0.074
12.778665601278464,0.073
12.780663204155012,0.069
12.78266080703156,0.07
12.78465840990811,0.07
12.786656012784658,0.069
12.788653615661206,0.069
12.790651218537754,0.065
12.792648821414302,0.062
12.79464642429085,0.059
12.796644027167398,0.056
12.798641630043946,0.051
12.800639232920494,0.049
12.802636835797042,0.05
12.80463443867359,0.049
12.806632041550138,0.047
12.808629644426686,0.045
12.810627247303234,0.044
12.812624850179782,0.036
12.814622453056332,0.034
12.81662005593288,0.035
12.818617658809428,0.031
12.820615261685976,0.029
12.822612864562524,0.025
12.824610467439072,0.022
12.82660807031562,0.019
12.828605673192168,0.018
12.830603276068716,0.018
12.832600878945264,0.017
12.834598481821812,0.015
12.83659608469836,0.013
12.838593687574908,0.009
12.840591290451457,0.006
12.842588893328005,0.004
12.844586496204553,0.004
12.8465840990811,0.003
12.848581701957649,0.001
12.8505793048342,0.001
12.852576907710748,-0.004
12.854574510587296,-0.005
12.856572113463844,-0.007
12.85856971634039,-0.009
12.86056731921694,-0.009
12.862564922093489,-0.009
12.864562524970037,-0.01
12.866560127846585,-0.011
12.868557730723133,-0.011
12.87055533359968,-0.013
12.872552936476229,-0.013
12.874550539352777,-0.013
12.876548142229325,-0.015
12.878545745105871,-0.018
12.88054334798242,-0.018
12.882540950858967,-0.017
12.884538553735515,-0.015
12.886536156612063,-0.014
12.888533759488611,-0.013
12.89053136236516,-0.017
12.89252896524171,-0.019
12.894526568118255,-0.021
12.896524170994804,-0.021
12.898521773871352,-0.02
12.9005193767479,-0.022
12.90251697962445,-0.021
12.904514582500996,-0.019
12.906512185377546,-0.021
12.908509788254094,-0.018
12.910507391130642,-0.016
12.91250499400719,-0.018
12.914502596883738,-0.018
12.916500199760286,-0.019
12.918497802636834,-0.02
12.920495405513382,-0.019
12.922493008389932,-0.02
12.92449061126648,-0.021
12.926488214143028,-0.021
12.928485817019576,-0.022
12.930483419896124,-0.022
12.932481022772672,-0.025
12.93447862564922,-0.028
12.936476228525768,-0.026
12.938473831402316,-0.026
12.940471434278864,-0.025
12.942469037155412,-0.023
12.94446664003196,-0.024
12.946464242908508,-0.024
12.948461845785056,-0.024
12.950459448661604,-0.019
12.952457051538152,-0.019
12.9544546544147,-0.025
12.956452257291248,-0.025
12.958449860167798,-0.024
12.960447463044346,-0.024
12.962445065920894,-0.022
12.964442668797442,-0.023
12.96644027167399,-0.024
12.968437874550538,-0.024
12.970435477427086,-0.027
12.972433080303636,-0.026
12.974430683180184,-0.026
12.97642828605673,-0.025
12.97842588893328,-0.024
12.980423491809828,-0.024
12.982421094686377,-0.024
12.984418697562925,-0.026
12.98641630043947,-0.027
12.98841390331602,-0.029
12.990411506192569,-0.031
12.992409109069117,-0.03
12.994406711945665,-0.03
12.996404314822213,-0.03
12.99840191769876,-0.035
13.000399520575307,-0.036
13.002397123451855,-0.034
13.004394726328403,-0.034
13.006392329204951,-0.033
13.0083899320815,-0.032
13.01038753495805,-0.034
13.012385137834595,-0.034
13.014382740711143,-0.035
13.016380343587691,-0.035
13.01837794646424,-0.034
13.02037554934079,-0.035
13.022373152217336,-0.033
13.024370755093884,-0.032
13.026368357970432,-0.034
13.028365960846982,-0.032
13.030363563723531,-0.029
13.03236116660008,-0.025
13.034358769476627,-0.026
13.036356372353175,-0.031
13.038353975229724,-0.03
13.040351578106272,-0.03
13.04234918098282,-0.031
13.044346783859368,-0.029
13.046344386735916,-0.027
13.048341989612464,-0.031
13.050339592489012,-0.034
13.05233719536556,-0.034
13.054334798242108,-0.035
13.056332401118656,-0.034
13.058330003995204,-0.034
13.060327606871752,-0.034
13.0623252097483,-0.034
13.064322812624848,-0.034
13.066320415501398,-0.034
13.068318018377946,-0.035
13.070315621254494,-0.033
13.072313224131042,-0.031
13.07431082700759,-0.029
13.076308429884138,-0.033
13.078306032760686,-0.036
13.080303635637234,-0.036
13.082301238513782,-0.037
13.08429884139033,-0.038
13.086296444266878,-0.036
13.088294047143426,-0.037
13.090291650019974,-0.037
13.092289252896522,-0.037
13.09428685577307,-0.04
13.09628445864962,-0.038
13.098282061526168,-0.036
13.100279664402716,-0.035
13.102277267279264,-0.032
13.104274870155812,-0.035
13.10627247303236,-0.036
13.108270075908909,-0.035
13.110267678785457,-0.035
13.112265281662005,-0.036
13.114262884538553,-0.037
13.1162604874151,-0.035
13.118258090291649,-0.036
13.120255693168197,-0.038
13.122253296044745,-0.041
13.124250898921291,-0.043
13.12624850179784,-0.04
13.128246104674387,-0.043
13.130243707550935,-0.042
13.132241310427483,-0.042
13.134238913304031,-0.042
13.13623651618058,-0.038
13.13823411905713,-0.041
13.14023172193368,-0.042
13.142229324810229,-0.038
13.144226927686775,-0.036
13.146224530563323,-0.035
13.148222133439871,-0.034
13.15021973631642,-0.03
13.152217339192967,-0.03
13.154214942069515,-0.029
13.156212544946063,-0.026
13.158210147822611,-0.032
13.16020775069916,-0.035
13.162205353575708,-0.037
13.164202956452256,-0.036
13.166200559328804,-0.035
13.168198162205352,-0.035
13.1701957650819,-0.037
13.172193367958448,-0.038
13.174190970834996,-0.035
13.176188573711546,-0.036
13.178186176588094,-0.038
13.180183779464642,-0.036
13.18218138234119,-0.033
13.184178985217738,-0.029
13.186176588094286,-0.029
13.188174190970834,-0.027
13.190171793847382,-0.028
13.19216939672393,-0.03
13.194166999600478,-0.032
13.196164602477026,-0.036
13.198162205353574,-0.034
13.200159808230122,-0.034
13.20215741110667,-0.037
13.204155013983218,-0.036
13.206152616859766,-0.035
13.208150219736314,-0.035
13.210147822612862,-0.035
13.212145425489412,-0.036
13.21414302836596,-0.037
13.216140631242508,-0.034
13.218138234119056,-0.033
13.220135836995604,-0.034
13.222133439872152,-0.034
13.2241310427487,-0.037
13.226128645625248,-0.044
13.228126248501797,-0.046
13.230123851378345,-0.043
13.232121454254893,-0.042
13.23411905713144,-0.041
13.236116660007989,-0.041
13.238114262884537,-0.039
13.240111865761085,-0.045
13.242109468637633,-0.049
13.24410707151418,-0.044
13.246104674390727,-0.043
13.24810227726728,-0.042
13.250099880143829,-0.043
13.252097483020377,-0.042
13.254095085896925,-0.047
13.256092688773473,-0.046
13.25809029165002,-0.042
13.260087894526569,-0.043
13.262085497403117,-0.043
13.264083100279665,-0.044
13.266080703156211,-0.042
13.26807830603276,-0.044
13.270075908909307,-0.042
13.272073511785855,-0.035
13.274071114662403,-0.034
13.276068717538951,-0.035
13.2780663204155,-0.035
13.280063923292047,-0.035
13.282061526168595,-0.035
13.284059129045144,-0.034
13.286056731921692,-0.032
13.28805433479824,-0.035
13.29005193767479,-0.04
13.292049540551336,-0.041
13.294047143427886,-0.039
13.296044746304434,-0.034
13.298042349180982,-0.035
13.30003995205753,-0.035
13.302037554934078,-0.034
13.304035157810626,-0.035
13.306032760687174,-0.037
13.308030363563722,-0.037
13.31002796644027,-0.037
13.312025569316818,-0.038
13.314023172193366,-0.04
13.316020775069914,-0.042
13.318018377946462,-0.043
13.320015980823012,-0.043
13.32201358369956,-0.043
13.324011186576108,-0.043
13.326008789452656,-0.04
13.328006392329204,-0.038
13.330003995205752,-0.043
13.3320015980823,-0.042
13.333999200958848,-0.039
13.335996803835396,-0.036
13.337994406711944,-0.036
13.339992009588492,-0.037
13.34198961246504,-0.034
13.343987215341588,-0.035
13.345984818218136,-0.038
13.347982421094684,-0.039
13.349980023971233,-0.036
13.35197762684778,-0.036
13.353975229724329,-0.039
13.355972832600878,-0.043
13.357970435477426,-0.045
13.359968038353976,-0.043
13.361965641230524,-0.043
13.36396324410707,-0.041
13.36596084698362,-0.041
13.367958449860168,-0.043
13.369956052736717,-0.043
13.371953655613265,-0.043
13.37395125848981,-0.043
13.37594886136636,-0.043
13.377946464242909,-0.047
13.379944067119457,-0.043
13.381941669996005,-0.044
13.383939272872553,-0.045
13.3859368757491,-0.041
13.387934478625647,-0.04
13.389932081502195,-0.04
13.391929684378743,-0.036
13.393927287255291,-0.034
13.39592489013184,-0.034
13.397922493008387,-0.037
13.399920095884935,-0.041
13.401917698761483,-0.04
13.403915301638031,-0.043
13.40591290451458,-0.043
13.40791050739113,-0.043
13.409908110267676,-0.044
13.411905713144224,-0.043
13.413903316020772,-0.041
13.415900918897322,-0.041
13.41789852177387,-0.041
13.419896124650418,-0.038
13.421893727526966,-0.036
13.423891330403514,-0.036
13.425888933280062,-0.038
13.427886536156612,-0.038
13.42988413903316,-0.042
13.431881741909708,-0.043
13.433879344786256,-0.042
13.435876947662804,-0.043
13.437874550539352,-0.04
13.4398721534159,-0.038
13.441869756292448,-0.037
13.443867359168996,-0.042
13.445864962045544,-0.042
13.447862564922092,-0.041
13.44986016779864,-0.04
13.451857770675188,-0.041
13.453855373551736,-0.038
13.455852976428284,-0.036
13.457850579304832,-0.036
13.45984818218138,-0.038
13.461845785057928,-0.043
13.463843387934478,-0.043
13.465840990811026,-0.045
13.467838593687574,-0.042
13.469836196564122,-0.04
13.47183379944067,-0.042
13.473831402317218,-0.04
13.475829005193766,-0.041
13.477826608070314,-0.041
13.479824210946862,-0.04
13.48182181382341,-0.043
13.48381941669996,-0.042
13.485817019576508,-0.043
13.487814622453056,-0.05
13.489812225329604,-0.05
13.49180982820615,-0.05
13.4938074310827,-0.051
13.495805033959249,-0.049
13.497802636835797,-0.041
13.499800239712345,-0.04
13.501797842588893,-0.044
13.50379544546544,-0.046
13.505793048341989,-0.046
13.507790651218537,-0.041
13.509788254095085,-0.038
13.511785856971631,-0.038
13.51378345984818,-0.036
13.515781062724727,-0.037
13.517778665601275,-0.036
13.519776268477823,-0.038
13.521773871354371,-0.042
13.52377147423092,-0.043
13.52576907710747,-0.045
13.527766679984015,-0.047
13.529764282860564,-0.047
13.531761885737112,-0.045
13.53375948861366,-0.047
13.535757091490211,-0.05
13.53775469436676,-0.051
13.539752297243307,-0.049
13.541749900119855,-0.046
13.543747502996403,-0.048
13.545745105872951,-0.043
13.5477427087495,-0.041
13.549740311626048,-0.041
13.551737914502596,-0.037
13.553735517379144,-0.038
13.555733120255692,-0.035
13.55773072313224,-0.033
13.559728326008788,-0.036
13.561725928885336,-0.033
13.563723531761884,-0.03
13.565721134638432,-0.035
13.56771873751498,-0.039
13.569716340391528,-0.038
13.571713943268078,-0.035
13.573711546144626,-0.034
13.575709149021174,-0.035
13.577706751897722,-0.033
13.57970435477427,-0.035
13.581701957650818,-0.04
13.583699560527366,-0.035
13.585697163403914,-0.03
13.587694766280462,-0.03
13.58969236915701,-0.032
13.591689972033558,-0.034
13.593687574910106,-0.033
13.595685177786654,-0.035
13.597682780663202,-0.04
13.59968038353975,-0.037
13.601677986416298,-0.038
13.603675589292846,-0.041
13.605673192169396,-0.04
13.607670795045944,-0.043
13.609668397922492,-0.047
13.61166600079904,-0.048
13.613663603675588,-0.047
13.615661206552137,-0.04
13.617658809428685,-0.036
13.619656412305233,-0.037
13.62165401518178,-0.04
13.623651618058329,-0.038
13.625649220934877,-0.037
13.627646823811425,-0.041
13.629644426687973,-0.037
13.63164202956452,-0.036
13.633639632441067,-0.037
13.635637235317615,-0.038
13.637634838194163,-0.04
13.639632441070711,-0.041
13.64163004394726,-0.038
13.643627646823813,-0.037
13.64562524970036,-0.041
13.647622852576909,-0.041
13.649620455453457,-0.043
13.651618058330005,-0.043
13.653615661206551,-0.043
13.6556132640831,-0.043
13.657610866959647,-0.043
13.659608469836195,-0.041
13.661606072712743,-0.042
13.663603675589291,-0.043
13.66560127846584,-0.042
13.667598881342387,-0.044
13.669596484218935,-0.045
13.671594087095484,-0.044
13.673591689972032,-0.043
13.67558929284858,-0.045
13.677586895725128,-0.043
13.679584498601676,-0.048
13.681582101478226,-0.046
13.683579704354774,-0.043
13.685577307231322,-0.043
13.68757491010787,-0.043
13.689572512984418,-0.048
13.691570115860966,-0.048
13.693567718737514,-0.047
13.695565321614062,-0.046
13.69756292449061,-0.04
13.699560527367158,-0.037
13.701558130243706,-0.035
13.703555733120254,-0.034
13.705553335996802,-0.035
13.70755093887335,-0.034
13.709548541749898,-0.035
13.711546144626446,-0.035
13.713543747502994,-0.035
13.715541350379544,-0.038
13.717538953256092,-0.041
13.71953655613264,-0.04
13.721534159009188,-0.045
13.723531761885736,-0.051
13.725529364762284,-0.046
13.727526967638832,-0.045
13.72952457051538,-0.049
13.731522173391928,-0.048
13.733519776268476,-0.048
13.735517379145024,-0.048
13.737514982021573,-0.046
13.73951258489812,-0.044
13.741510187774669,-0.036
13.743507790651217,-0.033
13.745505393527765,-0.035
13.747502996404313,-0.033
13.74950059928086,-0.029
13.75149820215741,-0.028
13.75349580503396,-0.03
13.755493407910508,-0.033
13.757491010787056,-0.041
13.759488613663605,-0.04
13.76148621654015,-0.032
13.7634838194167,-0.03
13.765481422293249,-0.032
13.767479025169797,-0.034
13.769476628046345,-0.038
13.771474230922893,-0.037
13.77347183379944,-0.029
13.775469436675989,-0.028
13.777467039552535,-0.028
13.779464642429083,-0.024
13.781462245305631,-0.018
13.78345984818218,-0.016
13.785457451058727,-0.015
13.787455053935275,-0.012
13.789452656811823,-0.007
13.791450259688371,-0.006
13.79344786256492,-0.006
13.79544546544147,-0.001
13.797443068318016,0.001
13.799440671194564,0.004
13.801438274071112,0.003
13.80343587694766,-0.002
13.80543347982421,0.002
13.807431082700758,-0.001
13.809428685577306,-0.002
13.811426288453854,-0.001
13.813423891330402,0.001
13.81542149420695,0.005
13.817419097083498,0.011
13.819416699960046,0.018
13.821414302836594,0.022
13.823411905713144,0.024
13.825409508589692,0.022
13.82740711146624,0.021
13.829404714342788,0.021
13.831402317219336,0.024
13.833399920095884,0.029
13.835397522972432,0.028
13.83739512584898,0.028
13.839392728725528,0.027
13.841390331602076,0.025
13.843387934478624,0.025
13.845385537355172,0.025
13.84738314023172,0.026
13.849380743108268,0.024
13.851378345984816,0.024
13.853375948861364,0.015
13.855373551737912,0.007
13.85737115461446,0.006
13.85936875749101,0.006
13.861366360367558,0.01
13.863363963244106,0.01
13.865361566120654,0.007
13.867359168997202,0.003
13.86935677187375,-0.004
13.8713543747503,-0.006
13.873351977626848,-0.008
13.875349580503396,-0.012
13.877347183379944,-0.016
13.87934478625649,-0.018
13.88134238913304,-0.022
13.883339992009589,-0.029
13.885337594886137,-0.028
13.887335197762685,-0.03
13.889332800639233,-0.034
13.89133040351578,-0.037
13.893328006392329,-0.04
13.895325609268877,-0.041
13.897323212145425,-0.045
13.899320815021971,-0.043
13.90131841789852,-0.045
13.903316020775067,-0.046
13.905313623651615,-0.047
13.907311226528163,-0.047
13.909308829404711,-0.046
13.91130643228126,-0.048
13.91330403515781,-0.046
13.915301638034355,-0.047
13.917299240910904,-0.051
13.919296843787452,-0.054
13.921294446664,-0.054
13.92329204954055,-0.057
13.925289652417096,-0.058
13.927287255293646,-0.054
13.929284858170194,-0.057
13.931282461046742,-0.056
13.933280063923291,-0.053
13.93527766679984,-0.054
13.937275269676388,-0.057
13.939272872552936,-0.056
13.941270475429484,-0.052
13.943268078306032,-0.054
13.94526568118258,-0.055
13.947263284059128,-0.053
13.949260886935676,-0.051
13.951258489812224,-0.053
13.953256092688772,-0.056
13.95525369556532,-0.056
13.957251298441868,-0.059
13.959248901318416,-0.061
13.961246504194964,-0.06
13.963244107071512,-0.061
13.96524170994806,-0.063
13.967239312824608,-0.062
13.969236915701158,-0.061
13.971234518577706,-0.061
13.973232121454254,-0.064
13.975229724330802,-0.065
13.97722732720735,-0.061
13.979224930083898,-0.057
13.981222532960446,-0.054
13.983220135836994,-0.059
13.985217738713542,-0.059
13.98721534159009,-0.056
13.989212944466638,-0.058
13.991210547343186,-0.061
13.993208150219736,-0.061
13.995205753096284,-0.057
13.99720335597283,-0.046
13.99920095884938,-0.036
14.001198561725928,-0.037
14.003196164602477,-0.041
14.005193767479025,-0.041
14.007191370355573,-0.044
14.00918897323212,-0.05
14.011186576108669,-0.051
14.013184178985217,-0.055
14.015181781861765,-0.048
14.017179384738313,-0.029
14.01917698761486,-0.017
14.021174590491407,0.002
14.023172193367955,0.023
14.025169796244503,0.046
14.027167399121051,0.062
14.0291650019976,0.085
14.03116260487415,0.119
14.033160207750695,0.162
14.035157810627243,0.212
14.037155413503791,0.245
14.03915301638034,0.27
14.041150619256891,0.294
14.04314822213344,0.322
14.045145825009987,0.363
14.047143427886535,0.416
14.049141030763083,0.459
14.051138633639631,0.492
14.05313623651618,0.52
14.055133839392727,0.544
14.057131442269275,0.572
14.059129045145824,0.593
14.061126648022372,0.61
14.06312425089892,0.615
14.065121853775468,0.608
14.067119456652016,0.587
14.069117059528564,0.558
14.071114662405112,0.528
14.07311226528166,0.486
14.075109868158208,0.443
14.077107471034758,0.392
14.079105073911306,0.331
14.081102676787854,0.272
14.083100279664402,0.223
14.08509788254095,0.177
14.087095485417498,0.13
14.089093088294046,0.077
14.091090691170594,0.034
14.093088294047142,-0.001
14.09508589692369,-0.025
14.097083499800238,-0.018
14.099081102676786,-0.014
14.101078705553334,-0.024
14.103076308429882,-0.032
14.10507391130643,-0.036
14.107071514182978,-0.039
14.109069117059526,-0.046
14.111066719936074,-0.053
14.113064322812624,-0.06
14.115061925689172,-0.064
14.11705952856572,-0.065
14.119057131442268,-0.065
14.121054734318816,-0.063
14.123052337195364,-0.07
14.125049940071913,-0.074
14.12704754294846,-0.07
14.129045145825009,-0.065
14.131042748701557,-0.058
14.133040351578105,-0.054
14.135037954454653,-0.048
14.1370355573312,-0.047
14.139033160207749,-0.046
14.141030763084297,-0.042
14.143028365960843,-0.043
14.145025968837391,-0.044
14.14702357171394,-0.043
14.14902117459049,-0.036
14.15101877746704,-0.03
14.153016380343589,-0.029
14.155013983220137,-0.033
14.157011586096685,-0.034
14.159009188973233,-0.033
14.16100679184978,-0.039
14.163004394726329,-0.043
14.165001997602875,-0.045
14.166999600479423,-0.044
14.168997203355971,-0.043
14.17099480623252,-0.04
14.172992409109067,-0.04
14.174990011985615,-0.041
14.176987614862163,-0.041
14.178985217738711,-0.035
14.18098282061526,-0.033
14.182980423491808,-0.034
14.184978026368356,-0.03
14.186975629244904,-0.028
14.188973232121452,-0.025
14.190970834998,-0.025
14.19296843787455,-0.028
14.194966040751098,-0.032
14.196963643627646,-0.035
14.198961246504194,-0.036
14.200958849380742,-0.036
14.20295645225729,-0.036
14.204954055133838,-0.036
14.206951658010386,-0.033
14.208949260886934,-0.029
14.210946863763482,-0.028
14.21294446664003,-0.028
14.214942069516578,-0.03
14.216939672393126,-0.029
14.218937275269674,-0.03
14.220934878146224,-0.034
14.222932481022772,-0.032
14.22493008389932,-0.029
14.226927686775868,-0.025
14.228925289652416,-0.028
14.230922892528964,-0.029
14.232920495405512,-0.029
14.23491809828206,-0.035
14.236915701158608,-0.037
14.238913304035156,-0.032
14.240910906911704,-0.028
14.242908509788252,-0.035
14.2449061126648,-0.035
14.246903715541348,-0.03
14.248901318417897,-0.035
14.250898921294445,-0.036
14.252896524170993,-0.034
14.25489412704754,-0.032
14.25689172992409,-0.03
14.25888933280064,-0.029
14.260886935677188,-0.03
14.262884538553736,-0.029
14.264882141430284,-0.029
14.26687974430683,-0.025
14.26887734718338,-0.022
14.270874950059929,-0.025
14.272872552936477,-0.026
14.274870155813025,-0.026
14.276867758689573,-0.029
14.27886536156612,-0.03
14.280862964442669,-0.025
14.282860567319217,-0.026
14.284858170195765,-0.029
14.286855773072311,-0.029
14.28885337594886,-0.031
14.290850978825407,-0.03
14.292848581701955,-0.03
14.294846184578503,-0.03
14.296843787455051,-0.024
14.2988413903316,-0.019
14.30083899320815,-0.02
14.302836596084695,-0.021
14.304834198961244,-0.022
14.306831801837792,-0.019
14.30882940471434,-0.017
14.31082700759089,-0.019
14.312824610467436,-0.024
14.314822213343986,-0.026
14.316819816220534,-0.025
14.318817419097082,-0.022
14.32081502197363,-0.021
14.322812624850178,-0.024
14.324810227726726,-0.022
14.326807830603274,-0.021
14.328805433479824,-0.019
14.330803036356372,-0.022
14.33280063923292,-0.025
14.334798242109468,-0.022
14.336795844986016,-0.021
14.338793447862564,-0.024
14.340791050739112,-0.028
14.34278865361566,-0.022
14.344786256492208,-0.019
14.346783859368756,-0.018
14.348781462245304,-0.018
14.350779065121852,-0.016
14.3527766679984,-0.011
14.354774270874948,-0.013
14.356771873751496,-0.015
14.358769476628044,-0.018
14.360767079504592,-0.02
14.36276468238114,-0.017
14.36476228525769,-0.016
14.366759888134238,-0.014
14.368757491010786,-0.013
14.370755093887334,-0.016
14.372752696763882,-0.019
14.37475029964043,-0.014
14.376747902516978,-0.009
14.378745505393526,-0.013
14.380743108270076,-0.011
14.382740711146624,-0.01
14.38473831402317,-0.007
14.38673591689972,-0.008
14.388733519776268,-0.009
14.390731122652817,-0.006
14.392728725529365,-0.009
14.39472632840591,-0.009
14.39672393128246,-0.007
14.398721534159009,-0.006
14.400719137035557,-0.007
14.402716739912105,-0.005
14.404714342788653,-0.003
14.4067119456652,-0.005
14.408709548541747,-0.006
14.410707151418295,-0.004
14.412704754294843,-0.005
14.414702357171391,-0.004
14.41669996004794,0.002
14.41869756292449,-0.005
14.420695165801035,-0.006
14.422692768677583,0.0
14.424690371554131,0.004
14.42668797443068,0.005
14.42868557730723,0.004
14.430683180183776,0.002
14.432680783060324,-0.002
14.434678385936872,0.001
14.436675988813423,0.005
14.438673591689971,0.008
14.44067119456652,0.008
14.442668797443067,0.006
14.444666400319615,0.01
14.446664003196164,0.007
14.448661606072712,0.009
14.45065920894926,0.011
14.452656811825808,0.007
14.454654414702356,0.011
14.456652017578904,0.011
14.458649620455452,0.013
14.460647223332,0.013
14.462644826208548,0.015
14.464642429085096,0.018
14.466640031961644,0.022
14.468637634838192,0.027
14.47063523771474,0.029
14.47263284059129,0.033
14.474630443467838,0.034
14.476628046344386,0.037
14.478625649220934,0.037
14.480623252097482,0.035
14.48262085497403,0.034
14.484618457850578,0.034
14.486616060727126,0.035
14.488613663603674,0.04
14.490611266480222,0.043
14.49260886935677,0.043
14.494606472233318,0.049
14.496604075109866,0.053
14.498601677986414,0.057
14.500599280862962,0.06
14.50259688373951,0.06
14.50459448661606,0.061
14.506592089492608,0.065
14.508589692369156,0.065
14.510587295245704,0.066
14.512584898122252,0.069
14.5145825009988,0.066
14.516580103875349,0.064
14.518577706751897,0.064
14.520575309628445,0.069
14.522572912504993,0.071
14.52457051538154,0.066
14.526568118258089,0.066
14.528565721134637,0.071
14.530563324011183,0.072
14.532560926887731,0.075
14.53455852976428,0.08
14.536556132640827,0.081
14.538553735517375,0.084
14.540551338393923,0.091
14.542548941270471,0.091
14.544546544147025,0.086
14.546544147023573,0.086
14.54854174990012,0.083
14.550539352776669,0.085
14.552536955653215,0.09
14.554534558529763,0.093
14.556532161406311,0.093
14.55852976428286,0.095
14.560527367159407,0.098
14.562524970035955,0.096
14.564522572912503,0.101
14.566520175789051,0.104
14.5685177786656,0.103
14.570515381542148,0.101
14.572512984418696,0.102
14.574510587295244,0.103
14.576508190171792,0.098
14.57850579304834,0.101
14.58050339592489,0.105
14.582500998801438,0.102
14.584498601677986,0.097
14.586496204554534,0.094
14.588493807431082,0.098
14.59049141030763,0.1
14.592489013184178,0.102
14.594486616060726,0.104
14.596484218937274,0.104
14.598481821813822,0.103
14.60047942469037,0.101
14.602477027566918,0.1
14.604474630443466,0.098
14.606472233320014,0.098
14.608469836196562,0.099
14.61046743907311,0.1
14.612465041949658,0.1
14.614462644826206,0.102
14.616460247702756,0.104
14.618457850579304,0.106
14.620455453455852,0.106
14.6224530563324,0.102
14.624450659208948,0.1
14.626448262085496,0.099
14.628445864962044,0.094
14.630443467838592,0.089
14.63244107071514,0.089
14.634438673591688,0.089
14.636436276468237,0.088
14.638433879344785,0.084
14.640431482221333,0.077
14.64242908509788,0.075
14.644426687974429,0.077
14.646424290850977,0.077
14.648421893727525,0.075
14.650419496604073,0.067
14.652417099480624,0.066
14.65441470235717,0.068
14.65641230523372,0.064
14.658409908110269,0.057
14.660407510986817,0.052
14.662405113863365,0.057
14.664402716739913,0.059
14.66640031961646,0.059
14.668397922493009,0.057
14.670395525369557,0.055
14.672393128246105,0.053
14.674390731122651,0.046
14.6763883339992,0.043
14.678385936875747,0.045
14.680383539752295,0.051
14.682381142628843,0.045
14.684378745505391,0.035
14.68637634838194,0.033
14.68837395125849,0.032
14.690371554135035,0.029
14.692369157011584,0.025
14.694366759888132,0.028
14.69636436276468,0.029
14.69836196564123,0.028
14.700359568517776,0.026
14.702357171394326,0.025
14.704354774270874,0.026
14.706352377147422,0.023
14.70834998002397,0.018
14.710347582900518,0.018
14.712345185777066,0.012
14.714342788653614,0.007
14.716340391530162,0.008
14.71833799440671,0.005
14.720335597283258,0.004
14.722333200159806,0.006
14.724330803036356,0.007
14.726328405912904,0.009
14.728326008789452,0.005
14.730323611666,0.002
14.732321214542548,-0.001
14.734318817419096,0.0
14.736316420295644,0.002
14.738314023172192,0.001
14.74031162604874,0.0
14.742309228925288,-0.003
14.744306831801836,-0.003
14.746304434678384,-0.001
14.748302037554932,0.001
14.75029964043148,0.002
14.752297243308028,0.001
14.754294846184576,0.001
14.756292449061124,-0.001
14.758290051937673,0.001
14.76028765481422,0.004
14.76228525769077,0.0
14.764282860567318,-0.003
14.766280463443866,-0.001
14.768278066320416,-0.002
14.770275669196964,-0.003
14.77227327207351,-0.003
14.77427087495006,-0.003
14.776268477826608,-0.002
14.778266080703157,-0.004
14.780263683579705,-0.007
14.78226128645625,-0.009
14.7842588893328,-0.007
14.786256492209349,-0.006
14.788254095085897,-0.006
14.790251697962445,-0.007
14.792249300838993,-0.011
14.79424690371554,-0.013
14.796244506592087,-0.013
14.798242109468635,-0.011
14.800239712345183,-0.009
14.802237315221731,-0.006
14.80423491809828,-0.005
14.80623252097483,-0.007
14.808230123851375,-0.011
14.810227726727923,-0.011
14.812225329604471,-0.009
14.81422293248102,-0.009
14.81622053535757,-0.004
14.818218138234116,-0.006
14.820215741110664,-0.009
14.822213343987212,-0.009
14.824210946863762,-0.013
14.82620854974031,-0.011
14.828206152616858,-0.011
14.830203755493406,-0.007
14.832201358369954,-0.008
14.834198961246504,-0.009
14.836196564123052,-0.005
14.8381941669996,-0.009
14.840191769876148,-0.005
14.842189372752696,-0.005
14.844186975629244,-0.006
14.846184578505792,-0.007
14.84818218138234,-0.013
14.850179784258888,-0.011
14.852177387135436,-0.014
14.854174990011984,-0.015
14.856172592888532,-0.01
14.85817019576508,-0.009
14.860167798641628,-0.006
14.862165401518176,-0.006
14.864163004394724,-0.013
14.866160607271272,-0.015
14.86815821014782,-0.01
14.87015581302437,-0.01
14.872153415900918,-0.013
14.874151018777466,-0.011
14.876148621654014,-0.011
14.878146224530562,-0.006
14.88014382740711,-0.004
14.882141430283658,-0.006
14.884139033160206,-0.007
14.886136636036754,-0.009
14.888134238913302,-0.007
14.89013184178985,-0.011
14.8921294446664,-0.011
14.894127047542948,-0.006
14.896124650419496,-0.007
14.898122253296044,-0.004
14.90011985617259,-0.004
14.90211745904914,-0.01
14.904115061925689,-0.005
14.906112664802237,-0.004
14.908110267678785,-0.007
14.910107870555333,-0.005
14.91210547343188,0.001
14.914103076308429,-0.002
14.916100679184977,-0.009
14.918098282061525,-0.01
14.920095884938071,-0.009
14.92209348781462,-0.004
14.924091090691167,-0.003
14.926088693567715,-0.003
14.928086296444263,-0.004
14.930083899320811,-0.007
14.93208150219736,-0.005
14.93407910507391,-0.005
14.936076707950455,-0.004
14.938074310827004,-0.004
14.940071913703552,-0.007
14.942069516580103,-0.004
14.944067119456651,-0.004
14.9460647223332,-0.009
14.948062325209747,-0.007
14.950059928086295,-0.004
14.952057530962843,-0.003
14.954055133839391,-0.002
14.95605273671594,-0.005
14.958050339592488,-0.007
14.960047942469036,-0.009
14.962045545345584,-0.007
14.964043148222132,-0.006
14.96604075109868,-0.003
14.968038353975228,0.001
14.970035956851776,-0.004
14.972033559728324,-0.009
14.974031162604872,-0.004
14.97602876548142,0.002
14.97802636835797,0.001
14.980023971234518,-0.004
14.982021574111066,-0.002
14.984019176987614,0.002
14.986016779864162,0.001
14.98801438274071,0.001
14.990011985617258,0.001
14.992009588493806,0.001
14.994007191370354,0.0
14.996004794246902,-0.003
14.99800239712345,-0.001
14.999999999999998,-0.003
15.001997602876546,-0.004
15.003995205753094,0.001
15.005992808629642,0.001
15.00799041150619,0.001
15.009988014382738,0.0
15.011985617259286,-0.002
15.013983220135836,-0.001
15.015980823012384,0.001
15.017978425888932,-0.003
15.01997602876548,-0.003
15.021973631642028,0.001
15.023971234518577,0.004
15.025968837395125,0.0
15.027966440271673,-0.002
15.02996404314822,0.004
15.031961646024769,0.004
15.033959248901317,0.006
15.035956851777865,0.004
15.037954454654413,0.004
15.03995205753096,0.006
15.041949660407507,0.004
15.043947263284055,0.004
15.045944866160603,0.004
15.047942469037151,0.004
15.049940071913705,0.002
15.051937674790253,0.0
15.0539352776668,-0.003
15.055932880543349,0.003
15.057930483419897,0.005
15.059928086296445,0.0
15.061925689172991,0.004
15.06392329204954,0.006
15.065920894926087,0.004
15.067918497802635,0.0
15.069916100679183,-0.003
15.071913703555731,0.0
15.07391130643228,0.003
15.075908909308827,0.005
15.077906512185375,0.004
15.079904115061924,-0.001
15.081901717938472,-0.002
15.08389932081502,-0.004
15.08589692369157,-0.006
15.087894526568116,-0.006
15.089892129444666,-0.006
15.091889732321214,-0.006
15.093887335197762,-0.006
15.09588493807431,-0.005
15.097882540950858,-0.006
15.099880143827406,-0.013
15.101877746703954,-0.011
15.103875349580502,-0.009
15.10587295245705,-0.009
15.107870555333598,-0.006
15.109868158210146,-0.009
15.111865761086694,-0.007
15.113863363963242,-0.008
15.11586096683979,-0.01
15.117858569716338,-0.006
15.119856172592886,-0.009
15.121853775469436,-0.007
15.123851378345984,-0.004
15.125848981222532,-0.004
15.12784658409908,-0.006
15.129844186975628,-0.011
15.131841789852176,-0.012
15.133839392728724,-0.006
15.135836995605272,-0.004
15.13783459848182,-0.005
15.139832201358368,-0.001
15.141829804234916,-0.004
15.143827407111464,-0.002
15.145825009988013,0.004
15.14782261286456,0.003
15.149820215741109,0.005
15.151817818617657,0.003
15.153815421494205,-0.004
15.155813024370753,-0.009
15.157810627247304,-0.007
15.15980823012385,-0.004
15.1618058330004,-0.003
15.163803435876948,-0.003
15.165801038753496,-0.007
15.167798641630045,-0.007
15.16979624450659,-0.006
15.17179384738314,-0.007
15.173791450259689,-0.009
15.175789053136237,-0.01
15.177786656012785,-0.008
15.179784258889333,-0.005
15.18178186176588,-0.005
15.183779464642427,-0.007
15.185777067518975,-0.004
15.187774670395523,-0.001
15.189772273272071,-0.002
15.19176987614862,-0.004
15.193767479025167,-0.006
15.195765081901715,-0.009
15.197762684778263,-0.007
15.199760287654811,-0.005
15.20175789053136,-0.009
15.20375549340791,-0.005
15.205753096284456,-0.001
15.207750699161004,-0.004
15.209748302037552,-0.009
15.211745904914102,-0.005
15.21374350779065,-0.003
15.215741110667198,-0.001
15.217738713543746,0.004
15.219736316420294,0.003
15.221733919296842,-0.001
15.22373152217339,-0.005
15.225729125049938,-0.003
15.227726727926486,-0.007
15.229724330803036,-0.006
15.231721933679584,-0.002
15.233719536556132,-0.002
15.23571713943268,0.001
15.237714742309228,-0.003
15.239712345185776,-0.003
15.241709948062324,-0.002
15.243707550938872,0.002
15.24570515381542,0.004
15.247702756691968,-0.004
15.249700359568516,-0.006
15.251697962445064,-0.006
15.253695565321612,-0.005
15.25569316819816,-0.001
15.257690771074708,0.001
15.259688373951256,-0.005
15.261685976827804,-0.006
15.263683579704352,-0.003
15.265681182580902,-0.004
15.26767878545745,-0.005
15.269676388333998,-0.005
15.271673991210546,-0.009
15.273671594087094,-0.004
15.275669196963642,-0.001
15.27766679984019,-0.003
15.27966440271674,-0.001
15.281662005593288,-0.001
15.283659608469836,0.0
15.285657211346384,-0.001
15.28765481422293,-0.003
15.28965241709948,-0.003
15.291650019976029,-0.004
15.293647622852577,-0.004
15.295645225729125,0.002
15.297642828605673,0.004
15.29964043148222,0.002
15.301638034358769,-0.002
15.303635637235317,-0.003
15.305633240111865,0.001
15.307630842988411,0.001
15.30962844586496,0.005
15.311626048741507,0.005
15.313623651618055,0.003
15.315621254494603,0.001
15.317618857371151,-0.003
15.3196164602477,-0.004
15.32161406312425,-0.006
15.323611666000795,-0.003
15.325609268877344,-0.005
15.327606871753892,-0.006
15.32960447463044,-0.002
15.33160207750699,-0.004
15.333599680383536,-0.005
15.335597283260086,-0.004
15.337594886136635,-0.004
15.339592489013183,-0.003
15.341590091889731,-0.002
15.34358769476628,0.001
15.345585297642828,-0.001
15.347582900519376,-0.004
15.349580503395924,-0.002
15.351578106272472,-0.003
15.35357570914902,-0.002
15.355573312025568,-0.004
15.357570914902116,-0.009
15.359568517778664,-0.008
15.361566120655212,-0.009
15.36356372353176,-0.01
15.365561326408308,-0.007
15.367558929284856,-0.009
15.369556532161404,-0.011
15.371554135037952,-0.01
15.373551737914502,-0.008
15.37554934079105,-0.005
15.377546943667598,-0.001
15.379544546544146,-0.002
15.381542149420694,-0.007
15.383539752297242,-0.005
15.38553735517379,-0.007
15.387534958050338,-0.01
15.389532560926886,-0.012
15.391530163803434,-0.011
15.393527766679982,-0.01
15.39552536955653,-0.013
15.397522972433078,-0.015
15.399520575309626,-0.017
15.401518178186176,-0.016
15.403515781062724,-0.019
15.40551338393927,-0.018
15.40751098681582,-0.017
15.409508589692368,-0.018
15.411506192568917,-0.017
15.413503795445465,-0.015
15.415501398322013,-0.009
15.41749900119856,-0.012
15.419496604075109,-0.013
15.421494206951657,-0.011
15.423491809828205,-0.009
15.425489412704753,-0.003
15.4274870155813,-0.003
15.429484618457847,-0.005
15.431482221334395,-0.006
15.433479824210943,-0.008
15.435477427087491,-0.011
15.43747502996404,-0.009
15.43947263284059,-0.007
15.441470235717135,-0.006
15.443467838593683,-0.005
15.445465441470237,-0.004
15.447463044346785,-0.003
15.449460647223331,-0.003
15.45145825009988,-0.005
15.453455852976427,-0.006
15.455453455852975,-0.005
15.457451058729523,-0.004
15.459448661606071,-0.001
15.46144626448262,0.0
15.463443867359167,-0.004
15.465441470235715,-0.003
15.467439073112264,-0.004
15.469436675988812,0.002
15.47143427886536,0.002
15.473431881741908,-0.003
15.475429484618456,-0.003
15.477427087495004,-0.006
15.479424690371552,-0.002
15.481422293248102,-0.001
15.48341989612465,-0.003
15.485417499001198,-0.003
15.487415101877746,-0.004
15.489412704754294,-0.003
15.491410307630842,-0.002
15.49340791050739,-0.001
15.495405513383938,0.002
15.497403116260486,0.004
15.499400719137034,0.004
15.501398322013582,0.004
15.50339592489013,0.0
15.505393527766678,-0.006
15.507391130643226,-0.007
15.509388733519774,-0.004
15.511386336396322,-0.004
15.51338393927287,-0.004
15.515381542149418,-0.005
15.517379145025968,-0.003
15.519376747902516,-0.003
15.521374350779064,-0.002
15.523371953655612,0.004
15.52536955653216,0.005
15.527367159408708,0.004
15.529364762285256,-0.001
15.531362365161804,-0.004
15.533359968038353,-0.002
15.5353575709149,-0.001
15.537355173791449,-0.004
15.539352776667997,-0.002
15.541350379544545,0.003
15.543347982421093,0.004
15.54534558529764,0.004
15.547343188174189,0.008
15.549340791050737,0.009
15.551338393927283,0.006
15.553335996803831,0.007
15.555333599680385,0.007
15.55733120255693,0.005
15.55932880543348,0.009
15.561326408310029,0.011
15.563324011186577,0.009
15.565321614063125,0.011
15.567319216939673,0.007
15.56931681981622,0.004
15.571314422692769,0.006
15.573312025569315,0.006
15.575309628445863,0.007
15.577307231322411,0.01
15.57930483419896,0.011
15.581302437075507,0.009
15.583300039952055,0.006
15.585297642828603,0.004
15.587295245705151,0.003
15.5892928485817,0.001
15.59129045145825,0.001
15.593288054334796,0.001
15.595285657211344,0.001
15.597283260087892,0.001
15.59928086296444,-0.001
15.60127846584099,0.002
15.603276068717538,-0.003
15.605273671594086,-0.004
15.607271274470634,0.001
15.609268877347182,0.0
15.61126648022373,0.001
15.613264083100278,0.001
15.615261685976826,0.004
15.617259288853374,0.009
15.619256891729922,0.011
15.62125449460647,0.013
15.623252097483018,0.011
15.625249700359566,0.011
15.627247303236116,0.011
15.629244906112664,0.013
15.631242508989212,0.011
15.63324011186576,0.01
15.635237714742308,0.006
15.637235317618856,0.006
15.639232920495404,0.009
15.641230523371952,0.006
15.6432281262485,0.007
15.645225729125048,0.008
15.647223332001596,0.006
15.649220934878144,0.007
15.651218537754692,0.007
15.65321614063124,0.011
15.655213743507788,0.021
15.657211346384337,0.025
15.659208949260885,0.025
15.661206552137433,0.027
15.663204155013982,0.029
15.66520175789053,0.03
15.66719936076708,0.034
15.669196963643628,0.035
15.671194566520176,0.035
15.673192169396724,0.035
15.67518977227327,0.031
15.67718737514982,0.029
15.679184978026369,0.028
15.681182580902917,0.03
15.683180183779465,0.033
15.685177786656013,0.038
15.68717538953256,0.043
15.689172992409109,0.046
15.691170595285657,0.046
15.693168198162205,0.044
15.695165801038751,0.048
15.6971634039153,0.052
15.699161006791847,0.054
15.701158609668395,0.059
15.703156212544943,0.061
15.705153815421491,0.058
15.70715141829804,0.059
15.70914902117459,0.06
15.711146624051135,0.057
15.713144226927684,0.051
15.715141829804232,0.052
15.71713943268078,0.056
15.71913703555733,0.054
15.721134638433876,0.051
15.723132241310426,0.048
15.725129844186974,0.049
15.727127447063522,0.046
15.72912504994007,0.044
15.731122652816618,0.043
15.733120255693166,0.039
15.735117858569716,0.037
15.737115461446264,0.034
15.739113064322812,0.033
15.74111066719936,0.03
15.743108270075908,0.029
15.745105872952456,0.027
15.747103475829004,0.02
15.749101078705552,0.015
15.7510986815821,0.015
15.753096284458648,0.011
15.755093887335196,0.006
15.757091490211744,0.007
15.759089093088292,0.005
15.76108669596484,0.001
15.763084298841388,0.0
15.765081901717936,0.001
15.767079504594484,-0.003
15.769077107471032,-0.007
15.771074710347582,-0.007
15.77307231322413,-0.006
15.775069916100678,-0.006
15.777067518977226,-0.005
15.779065121853774,-0.006
15.781062724730322,-0.01
15.78306032760687,-0.01
15.785057930483418,-0.011
15.787055533359966,-0.012
15.789053136236516,-0.013
15.791050739113064,-0.013
15.79304834198961,-0.015
15.79504594486616,-0.02
15.797043547742708,-0.021
15.799041150619257,-0.018
15.801038753495805,-0.015
15.80303635637235,-0.012
15.8050339592489,-0.013
15.807031562125449,-0.015
15.809029165001997,-0.016
15.811026767878545,-0.016
15.813024370755093,-0.014
15.81502197363164,-0.013
15.817019576508187,-0.011
15.819017179384735,-0.013
15.821014782261283,-0.017
15.823012385137831,-0.019
15.82500998801438,-0.017
15.82700759089093,-0.013
15.829005193767475,-0.015
15.831002796644023,-0.013
15.833000399520571,-0.014
15.83499800239712,-0.015
15.83699560527367,-0.015
15.838993208150216,-0.015
15.840990811026764,-0.015
15.842988413903315,-0.017
15.844986016779863,-0.017
15.846983619656411,-0.021
15.84898122253296,-0.018
15.850978825409507,-0.015
15.852976428286055,-0.011
15.854974031162604,-0.011
15.856971634039152,-0.015
15.8589692369157,-0.016
15.860966839792248,-0.014
15.862964442668796,-0.011
15.864962045545344,-0.008
15.866959648421892,0.003
15.86895725129844,0.011
15.870954854174988,0.015
15.872952457051536,0.012
15.874950059928084,0.008
15.876947662804632,0.003
15.878945265681182,-0.002
15.88094286855773,-0.004
15.882940471434278,-0.004
15.884938074310826,0.006
15.886935677187374,0.018
15.888933280063922,0.033
15.89093088294047,0.051
15.892928485817018,0.066
15.894926088693566,0.087
15.896923691570114,0.111
15.898921294446662,0.131
15.90091889732321,0.162
15.902916500199758,0.205
15.904914103076306,0.251
15.906911705952854,0.281
15.908909308829402,0.303
15.91090691170595,0.329
15.9129045145825,0.357
15.914902117459048,0.396
15.916899720335596,0.442
15.918897323212144,0.481
15.920894926088693,0.512
15.92289252896524,0.537
15.924890131841789,0.561
15.926887734718337,0.579
15.928885337594885,0.597
15.930882940471433,0.609
15.93288054334798,0.617
15.934878146224529,0.608
15.936875749101077,0.582
15.938873351977623,0.554
15.940870954854171,0.515
15.94286855773072,0.477
15.944866160607267,0.433
15.946863763483815,0.384
15.948861366360363,0.324
15.950858969236917,0.27
15.952856572113465,0.22
15.954854174990013,0.166
15.95685177786656,0.123
15.958849380743109,0.077
15.960846983619655,0.035
15.962844586496203,0.006
15.964842189372751,-0.004
15.9668397922493,0.002
15.968837395125847,-0.009
15.970834998002395,-0.018
15.972832600878943,-0.022
15.974830203755491,-0.021
15.97682780663204,-0.018
15.978825409508588,-0.025
15.980823012385136,-0.036
15.982820615261684,-0.044
15.984818218138232,-0.048
15.98681582101478,-0.045
15.98881342389133,-0.039
15.990811026767878,-0.036
15.992808629644426,-0.041
15.994806232520974,-0.043
15.996803835397522,-0.037
15.99880143827407,-0.036
16.000799041150618,-0.033
16.002796644027164,-0.03
16.004794246903714,-0.033
16.006791849780264,-0.03
16.00878945265681,-0.026
16.01078705553336,-0.021
16.012784658409906,-0.017
16.014782261286456,-0.015
16.016779864163002,-0.009
16.018777467039552,-0.004
16.0207750699161,-0.001
16.022772672792648,0.001
16.024770275669194,-0.002
16.026767878545744,-0.006
16.02876548142229,-0.005
16.03076308429884,-0.003
16.032760687175386,-0.004
16.034758290051936,-0.009
16.036755892928483,-0.011
16.038753495805032,-0.008
16.040751098681582,-0.006
16.04274870155813,-0.004
16.04474630443468,-0.001
16.046743907311225,-0.003
16.048741510187774,-0.003
16.05073911306432,-0.005
16.05273671594087,-0.004
16.054734318817417,-0.003
16.056731921693967,-0.002
16.058729524570513,-0.001
16.060727127447063,-0.003
16.06272473032361,-0.003
16.06472233320016,0.0
16.066719936076705,-0.001
16.068717538953255,-0.003
16.0707151418298,-0.004
16.07271274470635,-0.004
16.074710347582897,-0.004
16.076707950459447,-0.006
16.078705553335997,-0.007
16.080703156212543,-0.009
16.082700759089093,-0.01
16.08469836196564,-0.013
16.08669596484219,-0.01
16.088693567718735,-0.01
16.090691170595285,-0.015
16.09268877347183,-0.013
16.09468637634838,-0.011
16.096683979224927,-0.006
16.098681582101477,-0.002
16.100679184978024,-0.002
16.102676787854573,-0.003
16.10467439073112,-0.002
16.10667199360767,0.001
16.108669596484216,-0.001
16.110667199360766,-0.007
16.112664802237315,-0.007
16.11466240511386,-0.006
16.11666000799041,-0.005
16.118657610866958,-0.004
16.120655213743508,-0.006
16.122652816620054,-0.004
16.124650419496604,-0.003
16.12664802237315,-0.004
16.1286456252497,-0.007
16.130643228126246,-0.009
16.132640831002796,-0.01
16.134638433879342,-0.011
16.136636036755892,-0.009
16.138633639632438,-0.007
16.140631242508988,-0.005
16.142628845385534,-0.005
16.144626448262084,-0.005
16.14662405113863,-0.005
16.14862165401518,-0.006
16.15061925689173,-0.004
16.152616859768276,-0.006
16.154614462644826,-0.011
16.156612065521372,-0.01
16.158609668397922,-0.011
16.16060727127447,-0.011
16.162604874151018,-0.011
16.164602477027564,-0.007
16.166600079904114,-0.009
16.16859768278066,-0.015
16.17059528565721,-0.015
16.172592888533757,-0.011
16.174590491410306,-0.007
16.176588094286853,-0.006
16.178585697163403,-0.003
16.18058330003995,-0.001
16.1825809029165,-0.001
16.18457850579305,-0.002
16.186576108669595,-0.001
16.188573711546145,0.001
16.19057131442269,0.001
16.19256891729924,0.003
16.194566520175787,0.004
16.196564123052337,0.004
16.198561725928883,0.002
16.200559328805433,-0.001
16.20255693168198,0.003
16.20455453455853,0.004
16.206552137435075,0.005
16.208549740311625,0.001
16.21054734318817,-0.001
16.21254494606472,0.004
16.214542548941267,0.006
16.216540151817817,0.006
16.218537754694363,0.005
16.220535357570913,0.007
16.222532960447463,0.007
16.22453056332401,0.007
16.22652816620056,0.011
16.228525769077105,0.011
16.230523371953655,0.013
16.2325209748302,0.015
16.23451857770675,0.013
16.236516180583298,0.014
16.238513783459847,0.012
16.240511386336394,0.011
16.242508989212944,0.013
16.24450659208949,0.011
16.24650419496604,0.005
16.248501797842586,0.005
16.250499400719136,0.007
16.252497003595682,0.009
16.25449460647223,0.013
16.25649220934878,0.011
16.258489812225328,0.012
16.260487415101878,0.011
16.262485017978424,0.005
16.264482620854974,0.008
16.26648022373152,0.014
16.26847782660807,0.016
16.270475429484616,0.02
16.272473032361166,0.021
16.274470635237712,0.018
16.276468238114262,0.018
16.27846584099081,0.019
16.280463443867358,0.021
16.282461046743904,0.021
16.284458649620454,0.022
16.286456252497,0.019
16.28845385537355,0.019
16.290451458250097,0.025
16.292449061126646,0.03
16.294446664003196,0.032
16.296444266879742,0.033
16.298441869756292,0.032
16.30043947263284,0.03
16.30243707550939,0.032
16.304434678385935,0.034
16.306432281262484,0.035
16.30842988413903,0.037
16.31042748701558,0.038
16.312425089892127,0.038
16.314422692768677,0.035
16.316420295645223,0.035
16.318417898521773,0.036
16.32041550139832,0.042
16.32241310427487,0.044
16.324410707151415,0.039
16.326408310027965,0.037
16.328405912904515,0.035
16.33040351578106,0.037
16.33240111865761,0.04
16.334398721534157,0.044
16.336396324410707,0.048
16.338393927287253,0.05
16.340391530163803,0.048
16.34238913304035,0.045
16.3443867359169,0.046
16.346384338793445,0.05
16.348381941669995,0.057
16.35037954454654,0.059
16.35237714742309,0.056
16.354374750299637,0.057
16.356372353176187,0.059
16.358369956052734,0.061
16.360367558929283,0.062
16.36236516180583,0.059
16.36436276468238,0.061
16.36636036755893,0.06
16.368357970435476,0.062
16.370355573312025,0.066
16.37235317618857,0.066
16.37435077906512,0.068
16.376348381941668,0.071
16.378345984818218,0.073
16.380343587694764,0.078
16.382341190571314,0.077
16.38433879344786,0.076
16.38633639632441,0.079
16.388333999200956,0.082
16.390331602077506,0.087
16.392329204954052,0.087
16.394326807830602,0.086
16.396324410707148,0.086
16.398322013583698,0.087
16.400319616460244,0.09
16.402317219336794,0.092
16.404314822213344,0.094
16.40631242508989,0.097
16.40831002796644,0.1
16.410307630842986,0.099
16.412305233719536,0.101
16.414302836596082,0.1
16.416300439472632,0.102
16.41829804234918,0.11
16.42029564522573,0.106
16.422293248102275,0.104
16.424290850978824,0.11
16.42628845385537,0.111
16.42828605673192,0.109
16.430283659608467,0.108
16.432281262485017,0.108
16.434278865361563,0.105
16.436276468238113,0.108
16.438274071114662,0.107
16.44027167399121,0.108
16.44226927686776,0.111
16.444266879744305,0.11
16.446264482620855,0.107
16.4482620854974,0.108
16.45025968837395,0.111
16.452257291250497,0.11
16.454254894127047,0.112
16.456252497003593,0.11
16.458250099880143,0.108
16.46024770275669,0.112
16.46224530563324,0.116
16.464242908509785,0.114
16.466240511386335,0.113
16.46823811426288,0.119
16.47023571713943,0.121
16.472233320015977,0.118
16.474230922892527,0.114
16.476228525769077,0.114
16.478226128645623,0.114
16.480223731522173,0.11
16.48222133439872,0.113
16.48421893727527,0.113
16.486216540151815,0.112
16.488214143028365,0.112
16.49021174590491,0.109
16.49220934878146,0.11
16.494206951658008,0.11
16.496204554534557,0.11
16.498202157411104,0.11
16.500199760287654,0.111
16.5021973631642,0.11
16.50419496604075,0.107
16.506192568917296,0.105
16.508190171793846,0.1
16.510187774670396,0.096
16.512185377546942,0.093
16.51418298042349,0.09
16.516180583300038,0.088
16.518178186176588,0.086
16.520175789053134,0.085
16.522173391929684,0.083
16.52417099480623,0.081
16.52616859768278,0.079
16.528166200559326,0.076
16.530163803435876,0.071
16.532161406312422,0.07
16.534159009188972,0.07
16.53615661206552,0.068
16.538154214942068,0.064
16.540151817818614,0.065
16.542149420695164,0.066
16.54414702357171,0.063
16.54614462644826,0.062
16.54814222932481,0.06
16.550139832201356,0.056
16.552137435077906,0.056
16.554135037954453,0.056
16.556132640831002,0.058
16.55813024370755,0.053
16.5601278465841,0.045
16.562125449460645,0.043
16.564123052337195,0.043
16.56612065521374,0.042
16.56811825809029,0.042
16.570115860966837,0.042
16.572113463843387,0.043
16.574111066719933,0.043
16.576108669596483,0.039
16.57810627247303,0.037
16.58010387534958,0.034
16.58210147822613,0.033
16.584099081102675,0.033
16.586096683979225,0.032
16.58809428685577,0.032
16.59009188973232,0.029
16.592089492608867,0.025
16.594087095485417,0.022
16.596084698361963,0.021
16.598082301238513,0.022
16.60007990411506,0.022
16.60207750699161,0.014
16.604075109868155,0.014
16.606072712744705,0.015
16.60807031562125,0.016
16.6100679184978,0.018
16.612065521374348,0.015
16.614063124250897,0.015
16.616060727127444,0.015
16.618058330003993,0.013
16.620055932880543,0.011
16.62205353575709,0.013
16.62405113863364,0.015
16.626048741510186,0.012
16.628046344386735,0.011
16.63004394726328,0.011
16.63204155013983,0.011
16.634039153016378,0.009
16.636036755892928,0.011
16.638034358769474,0.011
16.640031961646024,0.011
16.64202956452257,0.011
16.64402716739912,0.007
16.646024770275666,0.005
16.648022373152216,0.002
16.650019976028762,0.002
16.652017578905312,0.006
16.654015181781862,0.011
16.656012784658408,0.009
16.658010387534958,0.004
16.660007990411504,0.003
16.662005593288054,0.004
16.6640031961646,0.009
16.66600079904115,0.011
16.667998401917696,0.007
16.669996004794246,0.009
16.671993607670792,0.008
16.673991210547342,0.005
16.67598881342389,0.006
16.67798641630044,0.004
16.679984019176985,0.004
16.681981622053534,0.004
16.68397922493008,0.004
16.68597682780663,0.003
16.687974430683177,0.003
16.689972033559727,0.003
16.691969636436276,0.001
16.693967239312823,0.002
16.695964842189372,0.001
16.69796244506592,0.005
16.69996004794247,0.007
16.701957650819015,0.009
16.703955253695565,0.011
16.70595285657211,0.006
16.70795045944866,0.006
16.709948062325207,0.005
16.711945665201757,0.004
16.713943268078303,0.004
16.715940870954853,0.004
16.7179384738314,0.004
16.71993607670795,0.005
16.721933679584495,0.007
16.723931282461045,0.004
16.725928885337595,0.007
16.72792648821414,0.007
16.72992409109069,0.006
16.731921693967237,0.008
16.733919296843787,0.009
16.735916899720333,0.011
16.737914502596883,0.009
16.73991210547343,0.011
16.74190970834998,0.011
16.743907311226526,0.012
16.745904914103075,0.01
16.74790251697962,0.009
16.74990011985617,0.011
16.751897722732718,0.011
16.753895325609268,0.009
16.755892928485814,0.007
16.757890531362364,0.007
16.75988813423891,0.004
16.76188573711546,0.006
16.76388333999201,0.009
16.765880942868556,0.006
16.767878545745106,0.004
16.769876148621652,0.005
16.7718737514982,0.004
16.773871354374748,0.005
16.775868957251298,0.005
16.777866560127844,0.004
16.779864163004394,0.004
16.78186176588094,0.003
16.78385936875749,0.003
16.785856971634036,0.004
16.787854574510586,0.007
16.789852177387132,0.006
16.791849780263682,0.006
16.79384738314023,0.004
16.795844986016778,0.002
16.797842588893328,0.003
16.799840191769874,-0.001
16.801837794646424,-0.001
16.80383539752297,0.003
16.80583300039952,0.004
16.807830603276066,0.001
16.809828206152616,0.002
16.811825809029163,0.005
16.813823411905712,0.006
16.81582101478226,0.006
16.81781861765881,0.006
16.819816220535355,0.007
16.821813823411905,0.004
16.82381142628845,0.005
16.825809029165,0.007
16.827806632041547,0.008
16.829804234918097,0.011
16.831801837794643,0.011
16.833799440671193,0.007
16.835797043547743,0.01
16.83779464642429,0.01
16.83979224930084,0.01
16.841789852177385,0.011
16.843787455053935,0.009
16.84578505793048,0.011
16.84778266080703,0.01
16.849780263683577,0.009
16.851777866560127,0.008
16.853775469436673,0.011
16.855773072313223,0.012
16.85777067518977,0.007
16.85976827806632,0.011
16.861765880942865,0.014
16.863763483819415,0.013
16.86576108669596,0.017
16.86775868957251,0.018
16.86975629244906,0.019
16.871753895325607,0.018
16.873751498202157,0.015
16.875749101078704,0.014
16.877746703955253,0.017
16.8797443068318,0.018
16.88174190970835,0.021
16.883739512584896,0.021
16.885737115461446,0.019
16.887734718337992,0.016
16.88973232121454,0.011
16.891729924091088,0.015
16.893727526967638,0.017
16.895725129844184,0.014
16.897722732720734,0.011
16.89972033559728,0.012
16.90171793847383,0.014
16.903715541350376,0.015
16.905713144226926,0.014
16.907710747103476,0.014
16.909708349980022,0.015
16.911705952856572,0.013
16.913703555733118,0.009
16.915701158609668,0.009
16.917698761486214,0.009
16.919696364362764,0.009
16.92169396723931,0.011
16.92369157011586,0.011
16.925689172992406,0.012
16.927686775868956,0.011
16.929684378745502,0.011
16.931681981622052,0.011
16.9336795844986,0.015
16.93567718737515,0.019
16.937674790251695,0.015
16.939672393128244,0.013
16.941669996004794,0.015
16.94366759888134,0.015
16.94566520175789,0.013
16.947662804634437,0.014
16.949660407510986,0.013
16.951658010387533,0.011
16.953655613264083,0.011
16.95565321614063,0.01
16.95765081901718,0.011
16.959648421893725,0.015
16.961646024770275,0.019
16.96364362764682,0.016
16.96564123052337,0.013
16.967638833399917,0.009
16.969636436276467,0.009
16.971634039153013,0.013
16.973631642029563,0.015
16.97562924490611,0.018
16.97762684778266,0.018
16.97962445065921,0.016
16.981622053535755,0.014
16.983619656412305,0.011
16.98561725928885,0.013
16.9876148621654,0.012
16.989612465041947,0.009
16.991610067918497,0.006
16.993607670795043,0.004
16.995605273671593,0.006
16.99760287654814,0.007
16.99960047942469,0.01
17.001598082301236,0.014
17.003595685177785,0.014
17.00559328805433,0.014
17.00759089093088,0.015
17.009588493807428,0.013
17.011586096683978,0.011
17.013583699560527,0.016
17.015581302437074,0.018
17.017578905313623,0.017
17.01957650819017,0.018
17.02157411106672,0.018
17.023571713943266,0.018
17.025569316819816,0.021
17.027566919696362,0.024
17.02956452257291,0.02
17.031562125449458,0.021
17.033559728326008,0.02
17.035557331202554,0.017
17.037554934079104,0.018
17.03955253695565,0.017
17.0415501398322,0.014
17.043547742708746,0.011
17.045545345585296,0.011
17.047542948461842,0.009
17.049540551338392,0.005
17.051538154214942,0.006
17.05353575709149,0.011
17.055533359968038,0.013
17.057530962844584,0.011
17.059528565721134,0.01
17.06152616859768,0.008
17.06352377147423,0.004
17.065521374350777,0.007
17.067518977227326,0.009
17.069516580103873,0.008
17.071514182980422,0.006
17.07351178585697,0.004
17.07550938873352,0.004
17.077506991610065,0.004
17.079504594486615,0.006
17.08150219736316,0.004
17.08349980023971,0.005
17.08549740311626,0.004
17.087495005992807,0.003
17.089492608869357,0.003
17.091490211745903,-0.002
17.093487814622453,0.004
17.095485417499,0.004
17.09748302037555,0.002
17.099480623252095,0.005
17.101478226128645,0.004
17.10347582900519,0.006
17.10547343188174,0.009
17.107471034758287,0.008
17.109468637634837,0.007
17.111466240511383,0.008
17.113463843387933,0.007
17.11546144626448,0.002
17.11745904914103,0.003
17.119456652017575,0.004
17.121454254894125,0.004
17.123451857770675,0.005
17.12544946064722,0.007
17.12744706352377,0.008
17.129444666400317,0.007
17.131442269276867,0.006
17.133439872153414,0.008
17.135437475029963,0.007
17.13743507790651,0.005
17.13943268078306,0.007
17.141430283659606,0.005
17.143427886536156,0.004
17.145425489412702,0.004
17.14742309228925,0.003
17.149420695165798,0.004
17.151418298042348,0.004
17.153415900918894,0.001
17.155413503795444,0.001
17.157411106671994,-0.001
17.15940870954854,-0.001
17.16140631242509,0.003
17.163403915301636,0.003
17.165401518178186,-0.003
17.167399121054732,-0.009
17.169396723931282,-0.011
17.171394326807828,-0.006
17.173391929684378,0.001
17.175389532560924,0.002
17.177387135437474,0.001
17.17938473831402,-0.002
17.18138234119057,-0.003
17.183379944067116,-0.003
17.185377546943666,-0.004
17.187375149820213,-0.001
17.189372752696762,-0.001
17.19137035557331,-0.001
17.19336795844986,0.001
17.19536556132641,0.001
17.197363164202955,0.004
17.199360767079504,0.002
17.20135836995605,0.001
17.2033559728326,0.001
17.205353575709147,0.002
17.207351178585697,0.006
17.209348781462243,0.004
17.211346384338793,0.001
17.21334398721534,0.004
17.21534159009189,0.004
17.217339192968435,0.005
17.219336795844985,0.005
17.22133439872153,0.004
17.22333200159808,0.004
17.225329604474627,0.004
17.227327207351177,0.003
17.229324810227723,0.003
17.231322413104273,0.002
17.233320015980823,-0.001
17.23531761885737,-0.003
17.23731522173392,-0.003
17.239312824610465,0.001
17.241310427487015,0.001
17.24330803036356,-0.002
17.24530563324011,-0.003
17.247303236116657,-0.006
17.249300838993207,-0.003
17.251298441869753,-0.001
17.253296044746303,0.003
17.25529364762285,0.004
17.2572912504994,0.005
17.259288853375946,0.007
17.261286456252495,0.009
17.26328405912904,0.01
17.26528166200559,0.006
17.26727926488214,0.007
17.269276867758688,0.006
17.271274470635237,0.004
17.273272073511784,0.003
17.275269676388334,0.002
17.27726727926488,0.002
17.27926488214143,-0.001
17.281262485017976,0.001
17.283260087894526,0.001
17.285257690771072,-0.002
17.287255293647622,-0.002
17.289252896524168,-0.003
17.291250499400718,-0.002
17.293248102277264,-0.002
17.295245705153814,-0.001
17.29724330803036,0.001
17.29924091090691,0.001
17.301238513783456,0.001
17.303236116660006,0.001
17.305233719536556,0.004
17.307231322413102,0.006
17.309228925289652,0.004
17.3112265281662,0.003
17.313224131042748,-0.001
17.315221733919294,-0.002
17.317219336795844,0.001
17.31921693967239,-0.001
17.32121454254894,-0.003
17.323212145425487,-0.005
17.325209748302036,-0.009
17.327207351178583,-0.009
17.329204954055133,-0.009
17.33120255693168,-0.007
17.33320015980823,-0.005
17.335197762684775,-0.003
17.337195365561325,-0.002
17.339192968437874,-0.003
17.34119057131442,-0.002
17.34318817419097,-0.001
17.345185777067517,0.001
17.347183379944067,0.001
17.349180982820613,0.001
17.351178585697163,0.001
17.35317618857371,0.002
17.35517379145026,0.002
17.357171394326805,0.001
17.359168997203355,0.004
17.3611666000799,0.006
17.36316420295645,0.009
17.365161805832997,0.011
17.367159408709547,0.013
17.369157011586093,0.012
17.371154614462643,0.006
17.37315221733919,0.009
17.37514982021574,0.011
17.37714742309229,0.007
17.379145025968835,0.005
17.381142628845385,0.003
17.38314023172193,-0.002
17.38513783459848,-0.004
17.387135437475028,0.0
17.389133040351577,0.004
17.391130643228124,0.003
17.393128246104673,0.003
17.39512584898122,0.001
17.39712345185777,0.001
17.399121054734316,-0.002
17.401118657610866,-0.002
17.403116260487412,-0.001
17.40511386336396,0.0
17.407111466240508,0.005
17.409109069117058,0.003
17.411106671993608,0.004
17.413104274870154,0.006
17.415101877746704,0.009
17.41709948062325,0.007
17.4190970834998,0.011
17.421094686376346,0.013
17.423092289252896,0.007
17.425089892129442,0.009
17.427087495005992,0.012
17.42908509788254,0.011
17.431082700759088,0.011
17.433080303635634,0.009
17.435077906512184,0.002
17.43707550938873,0.002
17.43907311226528,0.005
17.441070715141826,0.003
17.443068318018376,0.007
17.445065920894923,0.008
17.447063523771472,0.004
17.449061126648022,0.004
17.45105872952457,0.004
17.45305633240112,0.005
17.455053935277665,0.007
17.457051538154214,0.004
17.45904914103076,0.003
17.46104674390731,0.003
17.463044346783857,0.002
17.465041949660407,0.002
17.467039552536953,0.004
17.469037155413503,0.005
17.47103475829005,0.009
17.4730323611666,0.011
17.475029964043145,0.011
17.477027566919695,0.011
17.47902516979624,0.009
17.48102277267279,0.009
17.48302037554934,0.011
17.485017978425887,0.012
17.487015581302437,0.017
17.489013184178983,0.019
17.491010787055533,0.021
17.49300838993208,0.021
17.49500599280863,0.018
17.497003595685175,0.018
17.499001198561725,0.015
17.50099880143827,0.017
17.50299640431482,0.021
17.504994007191367,0.02
17.506991610067917,0.021
17.508989212944464,0.022
17.510986815821013,0.019
17.51298441869756,0.017
17.51498202157411,0.019
17.516979624450656,0.019
17.518977227327206,0.021
17.520974830203755,0.025
17.5229724330803,0.025
17.52497003595685,0.025
17.526967638833398,0.025
17.528965241709948,0.025
17.530962844586494,0.029
17.532960447463044,0.029
17.53495805033959,0.03
17.53695565321614,0.031
17.538953256092686,0.029
17.540950858969236,0.031
17.542948461845782,0.032
17.544946064722332,0.035
17.546943667598878,0.036
17.548941270475428,0.032
17.550938873351974,0.03
17.552936476228524,0.029
17.554934079105074,0.028
17.55693168198162,0.028
17.55892928485817,0.029
17.560926887734716,0.033
17.562924490611266,0.035
17.564922093487812,0.035
17.566919696364362,0.036
17.56891729924091,0.041
17.570914902117458,0.042
17.572912504994004,0.045
17.574910107870554,0.053
17.5769077107471,0.056
17.57890531362365,0.056
17.580902916500197,0.059
17.582900519376746,0.059
17.584898122253293,0.062
17.586895725129843,0.064
17.58889332800639,0.058
17.59089093088294,0.059
17.59288853375949,0.059
17.594886136636035,0.056
17.596883739512585,0.059
17.59888134238913,0.061
17.60087894526568,0.065
17.602876548142227,0.064
17.604874151018777,0.064
17.606871753895323,0.067
17.608869356771873,0.07
17.61086695964842,0.072
17.61286456252497,0.072
17.614862165401515,0.076
17.616859768278065,0.077
17.61885737115461,0.074
17.62085497403116,0.074
17.622852576907707,0.072
17.624850179784257,0.071
17.626847782660807,0.072
17.628845385537353,0.07
17.630842988413903,0.069
17.63284059129045,0.066
17.634838194167,0.068
17.636835797043545,0.067
17.638833399920095,0.063
17.64083100279664,0.061
17.64282860567319,0.059
17.644826208549738,0.055
17.646823811426287,0.051
17.648821414302834,0.049
17.650819017179384,0.048
17.65281662005593,0.053
17.65481422293248,0.051
17.656811825809026,0.047
17.658809428685576,0.047
17.660807031562122,0.042
17.66280463443867,0.034
17.66480223731522,0.031
17.666799840191768,0.03
17.668797443068318,0.03
17.670795045944864,0.026
17.672792648821414,0.022
17.67479025169796,0.023
17.67678785457451,0.02
17.678785457451056,0.018
17.680783060327606,0.019
17.682780663204152,0.017
17.684778266080702,0.013
17.68677586895725,0.007
17.688773471833798,0.005
17.690771074710344,0.008
17.692768677586894,0.008
17.69476628046344,0.004
17.69676388333999,0.004
17.69876148621654,0.005
17.700759089093086,0.007
17.702756691969636,0.007
17.704754294846182,0.009
17.706751897722732,0.011
17.70874950059928,0.009
17.71074710347583,0.007
17.712744706352375,0.007
17.714742309228924,0.005
17.71673991210547,0.006
17.71873751498202,0.006
17.720735117858567,0.005
17.722732720735117,0.002
17.724730323611663,0.001
17.726727926488213,0.003
17.72872552936476,0.002
17.73072313224131,0.002
17.732720735117855,0.005
17.734718337994405,0.007
17.736715940870955,0.007
17.7387135437475,0.007
17.74071114662405,0.007
17.742708749500597,0.004
17.744706352377147,0.005
17.746703955253693,0.006
17.748701558130243,0.004
17.75069916100679,-0.001
17.75269676388334,-0.002
17.754694366759885,-0.001
17.756691969636435,0.003
17.75868957251298,0.004
17.76068717538953,0.002
17.762684778266078,-0.001
17.764682381142627,-0.006
17.766679984019174,-0.005
17.768677586895723,-0.003
17.770675189772273,-0.002
17.77267279264882,0.002
17.77467039552537,0.003
17.776667998401916,0.005
17.778665601278465,0.013
17.78066320415501,0.015
17.78266080703156,0.018
17.784658409908108,0.026
17.786656012784658,0.028
17.788653615661204,0.025
17.790651218537754,0.02
17.7926488214143,0.015
17.79464642429085,0.009
17.796644027167396,0.009
17.798641630043946,0.02
17.800639232920492,0.033
17.802636835797042,0.047
17.804634438673588,0.065
17.806632041550138,0.081
17.808629644426688,0.101
17.810627247303234,0.125
17.812624850179784,0.147
17.81462245305633,0.175
17.81662005593288,0.215
17.818617658809426,0.261
17.820615261685976,0.295
17.822612864562522,0.317
17.824610467439072,0.336
17.82660807031562,0.364
17.82860567319217,0.402
17.830603276068715,0.449
17.832600878945264,0.49
17.83459848182181,0.522
17.83659608469836,0.551
17.838593687574907,0.571
17.840591290451457,0.599
17.842588893328006,0.62
17.844586496204553,0.638
17.846584099081102,0.651
17.84858170195765,0.651
17.8505793048342,0.641
17.852576907710745,0.616
17.854574510587295,0.585
17.85657211346384,0.547
17.85856971634039,0.507
17.860567319216937,0.463
17.862564922093487,0.414
17.864562524970033,0.357
17.866560127846583,0.304
17.86855773072313,0.255
17.87055533359968,0.203
17.872552936476225,0.153
17.874550539352775,0.11
17.87654814222932,0.079
17.87854574510587,0.051
17.88054334798242,0.052
17.882540950858967,0.061
17.884538553735517,0.053
17.886536156612063,0.042
17.888533759488613,0.035
17.89053136236516,0.033
17.89252896524171,0.032
17.894526568118255,0.028
17.896524170994805,0.016
17.89852177387135,0.011
17.9005193767479,0.009
17.902516979624448,0.005
17.904514582500997,0.003
17.906512185377544,0.002
17.908509788254094,-0.001
17.91050739113064,0.003
17.91250499400719,0.008
17.91450259688374,0.007
17.916500199760286,0.008
17.918497802636836,0.011
17.920495405513382,0.009
17.92249300838993,0.009
17.924490611266478,0.011
17.926488214143028,0.006
17.928485817019574,0.007
17.930483419896124,0.014
17.93248102277267,0.017
17.93447862564922,0.019
17.936476228525766,0.022
17.938473831402316,0.02
17.940471434278862,0.019
17.942469037155412,0.019
17.94446664003196,0.015
17.946464242908508,0.013
17.948461845785054,0.011
17.950459448661604,0.009
17.952457051538154,0.009
17.9544546544147,0.012
17.95645225729125,0.011
17.958449860167796,0.011
17.960447463044346,0.015
17.962445065920893,0.015
17.964442668797442,0.015
17.96644027167399,0.013
17.96843787455054,0.017
17.970435477427085,0.018
17.972433080303635,0.015
17.97443068318018,0.014
17.97642828605673,0.011
17.978425888933277,0.011
17.980423491809827,0.007
17.982421094686373,0.008
17.984418697562923,0.011
17.986416300439473,0.012
17.98841390331602,0.013
17.99041150619257,0.011
17.992409109069115,0.011
17.994406711945665,0.011
17.99640431482221,0.014
17.99840191769876,0.013
18.000399520575307,0.013
18.002397123451857,0.015
18.004394726328403,0.017
18.006392329204953,0.021
18.0083899320815,0.021
18.01038753495805,0.021
18.012385137834595,0.021
18.014382740711145,0.021
18.01638034358769,0.026
18.01837794646424,0.032
18.020375549340788,0.029
18.022373152217337,0.025
18.024370755093887,0.022
18.026368357970437,0.021
18.028365960846983,0.024
18.03036356372353,0.019
18.03236116660008,0.018
18.034358769476626,0.02
18.036356372353172,0.021
18.03835397522972,0.021
18.04035157810627,0.022
18.042349180982814,0.022
18.044346783859368,0.022
18.046344386735917,0.022
18.048341989612464,0.021
18.05033959248901,0.022
18.05233719536556,0.024
18.054334798242103,0.022
18.056332401118656,0.021
18.0583300039952,0.022
18.060327606871752,0.024
18.062325209748305,0.025
18.064322812624848,0.025
18.0663204155014,0.025
18.068318018377944,0.025
18.07031562125449,0.025
18.07231322413104,0.023
18.07431082700759,0.025
18.076308429884136,0.028
18.07830603276069,0.025
18.080303635637232,0.025
18.082301238513782,0.025
18.08429884139033,0.026
18.08629644426688,0.026
18.088294047143425,0.025
18.09029165001997,0.026
18.09228925289652,0.028
18.09428685577307,0.029
18.09628445864962,0.029
18.098282061526167,0.027
18.10027966440272,0.029
18.102277267279263,0.034
18.10427487015581,0.029
18.10627247303236,0.029
18.10827007590891,0.03
18.11026767878545,0.025
18.112265281662005,0.025
18.11426288453855,0.023
18.1162604874151,0.022
18.118258090291647,0.024
18.1202556931682,0.024
18.122253296044743,0.022
18.124250898921293,0.024
18.12624850179784,0.026
18.12824610467439,0.028
18.13024370755093,0.027
18.132241310427485,0.029
18.134238913304035,0.032
18.13623651618058,0.03
18.13823411905713,0.031
18.14023172193368,0.03
18.142229324810227,0.031
18.144226927686773,0.032
18.146224530563323,0.032
18.14822213343987,0.032
18.15021973631642,0.03
18.15221733919297,0.028
18.154214942069515,0.028
18.15621254494606,0.032
18.15821014782261,0.029
18.16020775069916,0.029
18.162205353575708,0.035
18.16420295645225,0.035
18.166200559328804,0.034
18.168198162205357,0.032
18.1701957650819,0.029
18.17219336795845,0.03
18.174190970835,0.032
18.176188573711546,0.032
18.17818617658809,0.034
18.18018377946464,0.032
18.182181382341188,0.03
18.184178985217734,0.035
18.186176588094284,0.035
18.188174190970837,0.035
18.19017179384738,0.035
18.19216939672393,0.035
18.19416699960048,0.038
18.196164602477022,0.039
18.19816220535357,0.036
18.20015980823012,0.035
18.20215741110667,0.037
18.20415501398322,0.038
18.206152616859768,0.041
18.208150219736314,0.042
18.210147822612864,0.041
18.21214542548941,0.043
18.21414302836596,0.044
18.216140631242503,0.043
18.218138234119056,0.045
18.220135836995603,0.046
18.222133439872152,0.049
18.2241310427487,0.053
18.22612864562525,0.059
18.228126248501795,0.058
18.230123851378345,0.061
18.23212145425489,0.063
18.23411905713144,0.062
18.236116660007987,0.062
18.238114262884537,0.06
18.240111865761087,0.062
18.242109468637636,0.058
18.244107071514183,0.053
18.24610467439073,0.053
18.24810227726728,0.056
18.250099880143825,0.06
18.25209748302037,0.064
18.25409508589692,0.063
18.25609268877347,0.065
18.258090291650017,0.067
18.260087894526567,0.069
18.262085497403117,0.07
18.264083100279663,0.07
18.26608070315621,0.074
18.26807830603276,0.072
18.270075908909305,0.073
18.27207351178585,0.074
18.2740711146624,0.076
18.27606871753895,0.079
18.2780663204155,0.077
18.280063923292047,0.082
18.2820615261686,0.084
18.284059129045144,0.085
18.286056731921693,0.084
18.28805433479824,0.082
18.29005193767479,0.086
18.292049540551336,0.09
18.29404714342789,0.092
18.296044746304432,0.092
18.29804234918098,0.094
18.300039952057528,0.096
18.30203755493408,0.093
18.304035157810624,0.099
18.30603276068717,0.102
18.30803036356372,0.104
18.31002796644027,0.106
18.31202556931682,0.107
18.31402317219337,0.108
18.31602077506992,0.108
18.318018377946466,0.11
18.32001598082301,0.11
18.32201358369956,0.11
18.324011186576108,0.112
18.32600878945265,0.113
18.328006392329204,0.116
18.33000399520575,0.119
18.3320015980823,0.121
18.333999200958846,0.121
18.3359968038354,0.122
18.337994406711942,0.127
18.33999200958849,0.126
18.34198961246504,0.124
18.34398721534159,0.123
18.34598481821813,0.121
18.347982421094684,0.122
18.349980023971234,0.119
18.35197762684778,0.119
18.35397522972433,0.122
18.35597283260088,0.123
18.357970435477423,0.123
18.359968038353973,0.125
18.361965641230523,0.127
18.36396324410707,0.126
18.36596084698362,0.124
18.367958449860165,0.129
18.369956052736715,0.129
18.37195365561326,0.131
18.37395125848981,0.133
18.37594886136636,0.133
18.377946464242907,0.135
18.379944067119453,0.135
18.381941669996003,0.134
18.383939272872556,0.137
18.3859368757491,0.14
18.38793447862565,0.141
18.389932081502195,0.14
18.391929684378745,0.138
18.39392728725529,0.136
18.39592489013184,0.135
18.397922493008387,0.135
18.399920095884937,0.137
18.401917698761483,0.136
18.403915301638037,0.132
18.40591290451458,0.125
18.40791050739113,0.12
18.40990811026768,0.122
18.411905713144225,0.123
18.41390331602077,0.121
18.41590091889732,0.123
18.417898521773868,0.12
18.419896124650418,0.119
18.421893727526967,0.119
18.423891330403517,0.117
18.425888933280063,0.117
18.42788653615661,0.116
18.42988413903316,0.11
18.431881741909702,0.107
18.433879344786256,0.106
18.4358769476628,0.103
18.43787455053935,0.103
18.439872153415894,0.096
18.441869756292448,0.09
18.443867359168998,0.089
18.445864962045544,0.086
18.44786256492209,0.084
18.44986016779864,0.085
18.451857770675183,0.085
18.453855373551736,0.085
18.45585297642829,0.085
18.457850579304832,0.08
18.459848182181386,0.079
18.46184578505793,0.072
18.46384338793448,0.072
18.465840990811024,0.074
18.46783859368757,0.072
18.46983619656412,0.07
18.47183379944067,0.068
18.473831402317217,0.068
18.475829005193766,0.066
18.477826608070316,0.061
18.479824210946862,0.058
18.48182181382341,0.055
18.48381941669996,0.053
18.485817019576505,0.052
18.48781462245305,0.05
18.4898122253296,0.05
18.49180982820615,0.052
18.4938074310827,0.05
18.495805033959247,0.048
18.4978026368358,0.049
18.499800239712343,0.051
18.501797842588893,0.048
18.50379544546544,0.045
18.50579304834199,0.045
18.50779065121853,0.044
18.509788254095085,0.039
18.51178585697163,0.035
18.51378345984818,0.038
18.515781062724727,0.038
18.51777866560128,0.036
18.519776268477823,0.038
18.521773871354373,0.038
18.52377147423092,0.034
18.52576907710747,0.034
18.52776667998402,0.038
18.529764282860565,0.036
18.531761885737115,0.038
18.53375948861366,0.038
18.53575709149021,0.033
18.53775469436676,0.034
18.539752297243307,0.033
18.541749900119854,0.03
18.543747502996403,0.032
18.54574510587295,0.029
18.5477427087495,0.03
18.54974031162605,0.03
18.5517379145026,0.03
18.553735517379145,0.032
18.55573312025569,0.031
18.55773072313224,0.033
18.559728326008788,0.032
18.56172592888533,0.028
18.563723531761884,0.028
18.565721134638437,0.024
18.56771873751498,0.021
18.56971634039153,0.021
18.57171394326808,0.024
18.573711546144622,0.026
18.57570914902117,0.027
18.57770675189772,0.03
18.579704354774268,0.027
18.581701957650814,0.025
18.583699560527364,0.024
18.585697163403918,0.021
18.58769476628046,0.024
18.58969236915701,0.021
18.59168997203356,0.022
18.593687574910103,0.023
18.595685177786653,0.02
18.5976827806632,0.018
18.599680383539752,0.015
18.6016779864163,0.015
18.60367558929285,0.013
18.605673192169395,0.011
18.607670795045944,0.015
18.60966839792249,0.013
18.61166600079904,0.015
18.613663603675587,0.013
18.615661206552137,0.009
18.617658809428683,0.011
18.619656412305236,0.013
18.62165401518178,0.014
18.62365161805833,0.014
18.625649220934875,0.011
18.627646823811425,0.011
18.62964442668797,0.011
18.63164202956452,0.006
18.633639632441067,0.007
18.635637235317617,0.009
18.637634838194167,0.008
18.639632441070717,0.006
18.641630043947263,0.005
18.64362764682381,0.005
18.64562524970036,0.006
18.647622852576905,0.006
18.64962045545345,0.008
18.65161805833,0.011
18.65361566120655,0.011
18.655613264083097,0.011
18.657610866959647,0.012
18.659608469836197,0.015
18.661606072712743,0.011
18.66360367558929,0.013
18.66560127846584,0.01
18.667598881342386,0.007
18.669596484218932,0.007
18.671594087095485,0.007
18.67359168997203,0.006
18.67558929284858,0.005
18.677586895725128,0.008
18.67958449860168,0.007
18.681582101478224,0.007
18.683579704354774,0.009
18.68557730723132,0.009
18.68757491010787,0.011
18.689572512984416,0.01
18.69157011586097,0.006
18.693567718737512,0.007
18.695565321614065,0.006
18.697562924490608,0.006
18.69956052736716,0.01
18.701558130243704,0.011
18.70355573312025,0.013
18.7055533359968,0.013
18.70755093887335,0.013
18.7095485417499,0.008
18.71154614462645,0.011
18.713543747503,0.015
18.715541350379542,0.011
18.71753895325609,0.011
18.71953655613264,0.01
18.721534159009188,0.009
18.72353176188573,0.007
18.725529364762284,0.007
18.72752696763883,0.009
18.72952457051538,0.011
18.731522173391927,0.011
18.73351977626848,0.008
18.735517379145023,0.009
18.737514982021573,0.008
18.73951258489812,0.01
18.74151018777467,0.014
18.74350779065122,0.009
18.745505393527765,0.011
18.747502996404315,0.009
18.74950059928086,0.006
18.75149820215741,0.009
18.75349580503396,0.009
18.755493407910507,0.011
18.757491010787053,0.01
18.759488613663603,0.008
18.76148621654015,0.007
18.7634838194167,0.007
18.765481422293245,0.007
18.767479025169795,0.009
18.76947662804634,0.011
18.77147423092289,0.009
18.77347183379944,0.007
18.775469436675987,0.007
18.777467039552533,0.009
18.779464642429083,0.013
18.781462245305637,0.015
18.78345984818218,0.018
18.78545745105873,0.016
18.787455053935275,0.015
18.789452656811825,0.017
18.79145025968837,0.015
18.79344786256492,0.015
18.795445465441468,0.015
18.797443068318017,0.015
18.799440671194564,0.017
18.801438274071117,0.018
18.80343587694766,0.017
18.80543347982421,0.014
18.80743108270076,0.015
18.809428685577306,0.014
18.81142628845385,0.018
18.8134238913304,0.018
18.81542149420695,0.013
18.817419097083494,0.013
18.819416699960048,0.011
18.821414302836597,0.011
18.823411905713144,0.011
18.82540950858969,0.013
18.82740711146624,0.013
18.829404714342783,0.011
18.831402317219336,0.012
18.83339992009588,0.011
18.835397522972432,0.013
18.83739512584898,0.017
18.839392728725528,0.017
18.841390331602074,0.018
18.843387934478624,0.014
18.84538553735517,0.011
18.84738314023172,0.013
18.849380743108267,0.014
18.851378345984816,0.016
18.85337594886137,0.015
18.855373551737912,0.015
18.857371154614462,0.015
18.85936875749101,0.015
18.86136636036756,0.017
18.863363963244105,0.018
18.86536156612065,0.021
18.8673591689972,0.018
18.86935677187375,0.018
18.871354374750297,0.014
18.873351977626847,0.007
18.875349580503396,0.008
18.877347183379943,0.007
18.87934478625649,0.012
18.88134238913304,0.011
18.883339992009585,0.009
18.88533759488613,0.007
18.88733519776268,0.007
18.88933280063923,0.007
18.89133040351578,0.008
18.893328006392327,0.011
18.89532560926888,0.009
18.897323212145423,0.007
18.899320815021973,0.006
18.90131841789852,0.006
18.90331602077507,0.008
18.90531362365161,0.009
18.907311226528165,0.007
18.90930882940471,0.007
18.91130643228126,0.009
18.913304035157807,0.009
18.91530163803436,0.008
18.917299240910904,0.007
18.919296843787453,0.009
18.921294446664,0.009
18.92329204954055,0.007
18.9252896524171,0.006
18.92728725529365,0.005
18.929284858170195,0.009
18.93128246104674,0.01
18.93328006392329,0.009
18.93527766679984,0.005
18.937275269676388,0.005
18.93927287255293,0.006
18.941270475429484,0.005
18.94326807830603,0.003
18.94526568118258,0.003
18.94726328405913,0.004
18.94926088693568,0.0
18.951258489812226,0.004
18.95325609268877,0.004
18.95525369556532,0.001
18.957251298441868,0.001
18.95924890131841,-0.001
18.961246504194964,0.002
18.963244107071517,0.003
18.96524170994806,0.003
18.96723931282461,0.002
18.96923691570116,0.004
18.971234518577702,0.003
18.97323212145425,-0.003
18.9752297243308,-0.001
18.97722732720735,0.0
18.979224930083895,-0.003
18.981222532960444,-0.001
18.983220135836994,0.003
18.98521773871354,0.006
18.98721534159009,0.009
18.98921294446664,0.006
18.991210547343183,0.004
18.993208150219733,0.002
18.995205753096283,0.002
18.997203355972832,0.002
18.99920095884938,-0.001
19.00119856172593,-0.003
19.003196164602475,-0.003
19.005193767479025,0.0
19.00719137035557,0.001
19.00918897323212,0.001
19.011186576108667,-0.002
19.013184178985217,-0.002
19.015181781861763,-0.003
19.017179384738316,-0.004
19.01917698761486,-0.005
19.02117459049141,-0.006
19.023172193367955,-0.004
19.025169796244505,-0.003
19.02716739912105,-0.004
19.0291650019976,-0.006
19.031162604874147,-0.005
19.033160207750697,-0.004
19.035157810627247,-0.005
19.037155413503797,-0.007
19.039153016380343,-0.004
19.04115061925689,-0.002
19.04314822213344,-0.005
19.045145825009985,-0.007
19.04714342788653,-0.004
19.04914103076308,-0.003
19.05113863363963,0.0
19.053136236516178,0.006
19.055133839392727,0.007
19.057131442269277,0.003
19.059129045145824,0.0
19.06112664802237,-0.001
19.06312425089892,-0.001
19.065121853775462,0.001
19.067119456652016,0.001
19.06911705952857,0.0
19.07111466240511,0.002
19.07311226528166,0.004
19.075109868158208,0.005
19.07710747103476,0.005
19.079105073911304,0.004
19.081102676787854,0.004
19.0831002796644,0.0
19.08509788254095,-0.002
19.087095485417496,-0.002
19.08909308829405,0.001
19.091090691170592,0.005
19.093088294047146,0.004
19.09508589692369,0.001
19.09708349980024,-0.003
19.099081102676784,-0.005
19.10107870555333,-0.004
19.10307630842988,-0.002
19.10507391130643,-0.003
19.10707151418298,-0.002
19.109069117059526,-0.002
19.11106671993608,-0.003
19.113064322812622,-0.003
19.11506192568917,-0.003
19.11705952856572,-0.002
19.11905713144227,-0.001
19.12105473431881,-0.003
19.123052337195364,-0.005
19.12504994007191,-0.006
19.12704754294846,-0.006
19.129045145825007,-0.005
19.13104274870156,-0.004
19.133040351578103,-0.003
19.135037954454653,-0.006
19.1370355573312,-0.008
19.13903316020775,-0.006
19.1410307630843,-0.004
19.143028365960845,-0.002
19.145025968837395,-0.002
19.14702357171394,-0.003
19.14902117459049,-0.003
19.15101877746704,-0.001
19.153016380343587,-0.001
19.155013983220133,-0.003
19.157011586096683,-0.002
19.15900918897323,-0.001
19.16100679184978,0.001
19.163004394726325,-0.001
19.165001997602875,0.001
19.16699960047942,0.001
19.16899720335597,0.002
19.17099480623252,0.001
19.172992409109067,-0.002
19.174990011985614,0.002
19.176987614862163,-0.001
19.178985217738717,-0.003
19.18098282061526,-0.001
19.18298042349181,-0.002
19.18497802636836,0.001
19.186975629244905,0.001
19.18897323212145,-0.002
19.190970834998,-0.005
19.192968437874548,-0.004
19.194966040751098,-0.003
19.196963643627644,-0.004
19.198961246504197,-0.002
19.20095884938074,-0.002
19.20295645225729,-0.001
19.20495405513384,-0.003
19.206951658010382,-0.006
19.20894926088693,-0.005
19.21094686376348,-0.009
19.21294446664003,-0.009
19.214942069516574,-0.007
19.216939672393128,-0.006
19.218937275269678,-0.007
19.220934878146224,-0.009
19.22293248102277,-0.005
19.22493008389932,-0.005
19.226927686775863,-0.004
19.228925289652416,-0.004
19.23092289252896,-0.004
19.232920495405512,-0.003
19.23491809828206,-0.004
19.23691570115861,-0.006
19.238913304035155,-0.003
19.240910906911704,-0.004
19.24290850978825,-0.004
19.2449061126648,-0.003
19.246903715541347,-0.004
19.248901318417897,-0.002
19.250898921294446,-0.003
19.252896524170996,-0.005
19.254894127047542,-0.005
19.25689172992409,-0.005
19.25888933280064,-0.004
19.260886935677185,-0.003
19.26288453855373,-0.001
19.26488214143028,0.002
19.26687974430683,0.0
19.268877347183377,-0.004
19.270874950059927,-0.003
19.272872552936477,-0.002
19.274870155813023,0.003
19.27686775868957,0.004
19.27886536156612,0.001
19.280862964442665,-0.002
19.28286056731921,-0.004
19.284858170195765,-0.005
19.28685577307231,-0.001
19.28885337594886,0.003
19.290850978825407,0.002
19.29284858170196,0.0
19.294846184578503,-0.001
19.296843787455053,0.001
19.2988413903316,-0.001
19.30083899320815,-0.001
19.302836596084692,-0.001
19.304834198961245,0.0
19.30683180183779,0.001
19.30882940471434,0.001
19.310827007590888,0.001
19.31282461046744,0.002
19.314822213343984,0.001
19.316819816220534,-0.002
19.31881741909708,0.001
19.32081502197363,-0.002
19.32281262485018,-0.006
19.32481022772673,-0.006
19.32680783060328,-0.006
19.328805433479825,-0.003
19.33080303635637,0.001
19.33280063923292,-0.001
19.334798242109468,-0.003
19.33679584498601,0.0
19.338793447862564,0.003
19.34079105073911,0.004
19.34278865361566,0.003
19.34478625649221,0.001
19.34678385936876,-0.001
19.348781462245302,-0.003
19.35077906512185,-0.004
19.3527766679984,-0.005
19.354774270874948,-0.004
19.356771873751494,-0.004
19.358769476628044,-0.003
19.360767079504598,-0.002
19.36276468238114,-0.006
19.36476228525769,-0.011
19.36675988813424,-0.013
19.368757491010783,-0.011
19.370755093887333,-0.006
19.37275269676388,-0.005
19.37475029964043,-0.004
19.37674790251698,-0.004
19.378745505393525,-0.009
19.380743108270075,-0.007
19.38274071114662,-0.007
19.38473831402317,-0.009
19.38673591689972,-0.009
19.388733519776267,-0.013
19.390731122652813,-0.013
19.392728725529363,-0.013
19.394726328405916,-0.012
19.39672393128246,-0.009
19.39872153415901,-0.011
19.400719137035555,-0.013
19.402716739912105,-0.013
19.40471434278865,-0.014
19.4067119456652,-0.01
19.408709548541747,-0.006
19.410707151418297,-0.007
19.412704754294843,-0.002
19.414702357171397,-0.001
19.41669996004794,-0.002
19.41869756292449,0.0
19.420695165801035,0.0
19.422692768677585,0.0
19.42469037155413,0.002
19.42668797443068,-0.002
19.42868557730723,-0.006
19.430683180183777,-0.005
19.432680783060327,-0.007
19.434678385936877,-0.004
19.436675988813423,0.001
19.43867359168997,0.001
19.44067119456652,-0.001
19.442668797443066,-0.003
19.444666400319612,-0.006
19.44666400319616,-0.011
19.44866160607271,-0.005
19.450659208949254,0.002
19.452656811825808,0.002
19.454654414702357,0.0
19.456652017578904,0.002
19.45864962045545,0.005
19.460647223332,0.009
19.462644826208543,0.011
19.464642429085096,0.013
19.46664003196165,0.015
19.468637634838192,0.014
19.470635237714745,0.013
19.472632840591288,0.012
19.47463044346784,0.009
19.476628046344384,0.007
19.47862564922093,0.005
19.48062325209748,0.003
19.48262085497403,0.002
19.484618457850576,0.003
19.48661606072713,0.005
19.488613663603672,0.007
19.490611266480222,0.009
19.49260886935677,0.012
19.49460647223332,0.017
19.496604075109865,0.018
19.49860167798641,0.022
19.500599280862964,0.024
19.50259688373951,0.028
19.50459448661606,0.034
19.506592089492607,0.037
19.50858969236916,0.038
19.510587295245703,0.038
19.51258489812225,0.038
19.5145825009988,0.035
19.51658010387535,0.034
19.51857770675189,0.032
19.520575309628445,0.033
19.52257291250499,0.032
19.52457051538154,0.034
19.526568118258087,0.039
19.52856572113464,0.041
19.530563324011183,0.045
19.532560926887733,0.046
19.53455852976428,0.049
19.53655613264083,0.054
19.53855373551738,0.056
19.540551338393925,0.055
19.542548941270475,0.058
19.54454654414702,0.06
19.54654414702357,0.065
