Time,III
0.0,-1.179
0.001997602876548142,-1.177
0.003995205753096284,-1.175
0.005992808629644426,-1.175
0.007990411506192568,-1.179
0.00998801438274071,-1.183
0.011985617259288851,-1.185
0.013983220135836994,-1.183
0.015980823012385136,-1.182
0.017978425888933277,-1.179
0.01997602876548142,-1.179
0.021973631642029562,-1.179
0.023971234518577703,-1.175
0.025968837395125847,-1.181
0.027966440271673988,-1.181
0.02996404314822213,-1.177
0.03196164602477027,-1.179
0.03395924890131841,-1.177
0.035956851777866554,-1.178
0.0379544546544147,-1.175
0.03995205753096284,-1.173
0.04194966040751098,-1.176
0.043947263284059124,-1.175
0.045944866160607264,-1.174
0.047942469037155405,-1.172
0.04994007191370355,-1.169
0.051937674790251694,-1.169
0.053935277666799834,-1.17
0.055932880543347975,-1.169
0.057930483419896116,-1.168
0.05992808629644426,-1.168
0.061925689172992404,-1.167
0.06392329204954054,-1.171
0.06592089492608869,-1.171
0.06791849780263683,-1.171
0.06991610067918497,-1.169
0.07191370355573311,-1.165
0.07391130643228125,-1.163
0.0759089093088294,-1.159
0.07790651218537754,-1.151
0.07990411506192568,-1.149
0.08190171793847383,-1.149
0.08389932081502197,-1.153
0.0858969236915701,-1.153
0.08789452656811825,-1.143
0.08989212944466639,-1.139
0.09188973232121453,-1.147
0.09388733519776267,-1.151
0.09588493807431081,-1.147
0.09788254095085897,-1.143
0.0998801438274071,-1.145
0.10187774670395525,-1.148
0.10387534958050339,-1.145
0.10587295245705153,-1.146
0.10787055533359967,-1.146
0.10986815821014781,-1.145
0.11186576108669595,-1.147
0.11386336396324409,-1.143
0.11586096683979223,-1.137
0.11785856971634039,-1.136
0.11985617259288853,-1.135
0.12185377546943667,-1.137
0.12385137834598481,-1.139
0.12584898122253294,-1.137
0.1278465840990811,-1.136
0.12984418697562924,-1.132
0.13184178985217737,-1.133
0.13383939272872553,-1.133
0.13583699560527365,-1.133
0.1378345984818218,-1.133
0.13983220135836993,-1.13
0.1418298042349181,-1.125
0.14382740711146622,-1.123
0.14582500998801437,-1.125
0.1478226128645625,-1.125
0.14982021574111065,-1.123
0.1518178186176588,-1.121
0.15381542149420693,-1.121
0.1558130243707551,-1.119
0.15781062724730321,-1.11
0.15980823012385137,-1.107
0.1618058330003995,-1.107
0.16380343587694765,-1.105
0.16580103875349578,-1.105
0.16779864163004393,-1.098
0.16979624450659206,-1.092
0.1717938473831402,-1.091
0.17379145025968837,-1.089
0.1757890531362365,-1.087
0.17778665601278465,-1.084
0.17978425888933278,-1.081
0.18178186176588093,-1.076
0.18377946464242906,-1.069
0.1857770675189772,-1.067
0.18777467039552534,-1.065
0.1897722732720735,-1.061
0.19176987614862162,-1.06
0.19376747902516978,-1.058
0.19576508190171793,-1.051
0.19776268477826606,-1.048
0.1997602876548142,-1.048
0.20175789053136234,-1.04
0.2037554934079105,-1.034
0.20575309628445862,-1.034
0.20775069916100677,-1.031
0.2097483020375549,-1.029
0.21174590491410306,-1.024
0.2137435077906512,-1.02
0.21574111066719934,-1.018
0.2177387135437475,-1.014
0.21973631642029562,-1.01
0.22173391929684377,-1.01
0.2237315221733919,-1.008
0.22572912504994005,-1.006
0.22772672792648818,-1.001
0.22972433080303634,-0.994
0.23172193367958446,-0.994
0.23371953655613262,-0.991
0.23571713943268077,-0.99
0.2377147423092289,-0.986
0.23971234518577705,-0.984
0.24170994806232518,-0.985
0.24370755093887334,-0.979
0.24570515381542146,-0.975
0.24770275669196962,-0.974
0.24970035956851774,-0.971
0.25169796244506587,-0.965
0.253695565321614,-0.955
0.2556931681981622,-0.957
0.25769077107471033,-0.955
0.2596883739512585,-0.951
0.2616859768278066,-0.956
0.26368357970435474,-0.955
0.2656811825809029,-0.949
0.26767878545745105,-0.949
0.26967638833399915,-0.945
0.2716739912105473,-0.942
0.27367159408709546,-0.939
0.2756691969636436,-0.934
0.27766679984019177,-0.931
0.27966440271673987,-0.928
0.281662005593288,-0.927
0.2836596084698362,-0.928
0.28565721134638433,-0.924
0.28765481422293243,-0.92
0.2896524170994806,-0.926
0.29165001997602874,-0.925
0.2936476228525769,-0.924
0.295645225729125,-0.924
0.29764282860567315,-0.927
0.2996404314822213,-0.932
0.30163803435876946,-0.929
0.3036356372353176,-0.931
0.3056332401118657,-0.935
0.30763084298841387,-0.938
0.309628445864962,-0.944
0.3116260487415102,-0.948
0.3136236516180583,-0.951
0.31562125449460643,-0.955
0.3176188573711546,-0.958
0.31961646024770274,-0.964
0.3216140631242509,-0.965
0.323611666000799,-0.967
0.32560926887734715,-0.974
0.3276068717538953,-0.982
0.32960447463044346,-0.986
0.33160207750699155,-0.988
0.3335996803835397,-0.99
0.33559728326008786,-0.993
0.337594886136636,-0.999
0.3395924890131841,-1.006
0.3415900918897323,-1.01
0.3435876947662804,-1.016
0.3455852976428286,-1.022
0.34758290051937674,-1.02
0.34958050339592484,-1.024
0.351578106272473,-1.032
0.35357570914902114,-1.037
0.3555733120255693,-1.038
0.3575709149021174,-1.038
0.35956851777866555,-1.039
0.3615661206552137,-1.042
0.36356372353176186,-1.044
0.36556132640831,-1.048
0.3675589292848581,-1.048
0.36955653216140627,-1.05
0.3715541350379544,-1.056
0.3735517379145026,-1.056
0.3755493407910507,-1.061
0.37754694366759883,-1.065
0.379544546544147,-1.063
0.38154214942069514,-1.069
0.38353975229724324,-1.073
0.3855373551737914,-1.077
0.38753495805033955,-1.081
0.3895325609268877,-1.083
0.39153016380343586,-1.085
0.39352776667998396,-1.087
0.3955253695565321,-1.087
0.39752297243308027,-1.087
0.3995205753096284,-1.088
0.4015181781861765,-1.093
0.4035157810627247,-1.098
0.40551338393927283,-1.093
0.407510986815821,-1.095
0.40950858969236914,-1.095
0.41150619256891724,-1.091
0.4135037954454654,-1.092
0.41550139832201355,-1.095
0.4174990011985617,-1.097
0.4194966040751098,-1.095
0.42149420695165796,-1.097
0.4234918098282061,-1.101
0.42548941270475427,-1.099
0.4274870155813024,-1.098
0.4294846184578505,-1.101
0.4314822213343987,-1.101
0.43347982421094683,-1.099
0.435477427087495,-1.1
0.4374750299640431,-1.102
0.43947263284059124,-1.101
0.4414702357171394,-1.107
0.44346783859368755,-1.109
0.44546544147023565,-1.105
0.4474630443467838,-1.105
0.44946064722333195,-1.107
0.4514582500998801,-1.106
0.45345585297642826,-1.105
0.45545345585297636,-1.107
0.4574510587295245,-1.105
0.4594486616060727,-1.103
0.4614462644826208,-1.105
0.4634438673591689,-1.104
0.4654414702357171,-1.105
0.46743907311226524,-1.109
0.4694366759888134,-1.114
0.47143427886536154,-1.115
0.47343188174190964,-1.111
0.4754294846184578,-1.107
0.47742708749500595,-1.106
0.4794246903715541,-1.105
0.4814222932481022,-1.105
0.48341989612465036,-1.107
0.4854174990011985,-1.107
0.48741510187774667,-1.109
0.48941270475429477,-1.107
0.4914103076308429,-1.103
0.4934079105073911,-1.102
0.49540551338393923,-1.105
0.4974031162604874,-1.104
0.4994007191370355,-1.101
0.5013983220135837,-1.097
0.5033959248901317,-1.095
0.5053935277666799,-1.099
0.507391130643228,-1.105
0.5093887335197762,-1.107
0.5113863363963244,-1.101
0.5133839392728725,-1.1
0.5153815421494207,-1.101
0.5173791450259688,-1.098
0.519376747902517,-1.097
0.521374350779065,-1.093
0.5233719536556132,-1.091
0.5253695565321613,-1.09
0.5273671594087095,-1.091
0.5293647622852576,-1.093
0.5313623651618058,-1.095
0.533359968038354,-1.097
0.5353575709149021,-1.095
0.5373551737914503,-1.095
0.5393527766679983,-1.097
0.5413503795445465,-1.1
0.5433479824210946,-1.099
0.5453455852976428,-1.095
0.5473431881741909,-1.097
0.5493407910507391,-1.096
0.5513383939272872,-1.097
0.5533359968038354,-1.099
0.5553335996803835,-1.095
0.5573312025569316,-1.094
0.5593288054334797,-1.097
0.5613264083100279,-1.1
0.563324011186576,-1.1
0.5653216140631242,-1.098
0.5673192169396724,-1.099
0.5693168198162205,-1.099
0.5713144226927687,-1.097
0.5733120255693167,-1.091
0.5753096284458649,-1.095
0.577307231322413,-1.099
0.5793048341989612,-1.097
0.5813024370755093,-1.098
0.5833000399520575,-1.101
0.5852976428286056,-1.099
0.5872952457051538,-1.099
0.589292848581702,-1.1
0.59129045145825,-1.101
0.5932880543347981,-1.101
0.5952856572113463,-1.099
0.5972832600878945,-1.097
0.5992808629644426,-1.097
0.6012784658409908,-1.1
0.6032760687175389,-1.099
0.6052736715940871,-1.099
0.6072712744706352,-1.099
0.6092688773471833,-1.099
0.6112664802237314,-1.098
0.6132640831002796,-1.101
0.6152616859768277,-1.105
0.6172592888533759,-1.106
0.619256891729924,-1.107
0.6212544946064722,-1.109
0.6232520974830204,-1.111
0.6252497003595685,-1.113
0.6272473032361165,-1.115
0.6292449061126647,-1.113
0.6312425089892129,-1.113
0.633240111865761,-1.109
0.6352377147423092,-1.108
0.6372353176188573,-1.112
0.6392329204954055,-1.113
0.6412305233719536,-1.117
0.6432281262485018,-1.121
0.6452257291250498,-1.123
0.647223332001598,-1.118
0.6492209348781461,-1.115
0.6512185377546943,-1.115
0.6532161406312424,-1.115
0.6552137435077906,-1.115
0.6572113463843388,-1.115
0.6592089492608869,-1.119
0.6612065521374351,-1.119
0.6632041550139831,-1.116
0.6652017578905313,-1.121
0.6671993607670794,-1.121
0.6691969636436276,-1.12
0.6711945665201757,-1.125
0.6731921693967239,-1.124
0.675189772273272,-1.12
0.6771873751498202,-1.119
0.6791849780263682,-1.117
0.6811825809029164,-1.119
0.6831801837794645,-1.123
0.6851777866560127,-1.122
0.6871753895325609,-1.127
0.689172992409109,-1.132
0.6911705952856572,-1.133
0.6931681981622053,-1.128
0.6951658010387535,-1.131
0.6971634039153015,-1.131
0.6991610067918497,-1.13
0.7011586096683978,-1.133
0.703156212544946,-1.133
0.7051538154214941,-1.133
0.7071514182980423,-1.134
0.7091490211745904,-1.132
0.7111466240511386,-1.131
0.7131442269276868,-1.131
0.7151418298042348,-1.131
0.717139432680783,-1.129
0.7191370355573311,-1.129
0.7211346384338793,-1.13
0.7231322413104274,-1.131
0.7251298441869756,-1.129
0.7271274470635237,-1.121
0.7291250499400719,-1.12
0.73112265281662,-1.117
0.7331202556931681,-1.117
0.7351178585697162,-1.127
0.7371154614462644,-1.133
0.7391130643228125,-1.131
0.7411106671993607,-1.129
0.7431082700759088,-1.129
0.745105872952457,-1.129
0.7471034758290052,-1.131
0.7491010787055533,-1.135
0.7510986815821014,-1.133
0.7530962844586495,-1.13
0.7550938873351977,-1.129
0.7570914902117458,-1.127
0.759089093088294,-1.128
0.7610866959648421,-1.129
0.7630842988413903,-1.129
0.7650819017179384,-1.13
0.7670795045944865,-1.131
0.7690771074710346,-1.133
0.7710747103475828,-1.134
0.773072313224131,-1.133
0.7750699161006791,-1.133
0.7770675189772273,-1.133
0.7790651218537754,-1.131
0.7810627247303236,-1.13
0.7830603276068717,-1.133
0.7850579304834198,-1.133
0.7870555333599679,-1.132
0.7890531362365161,-1.137
0.7910507391130642,-1.139
0.7930483419896124,-1.141
0.7950459448661605,-1.14
0.7970435477427087,-1.134
0.7990411506192568,-1.133
0.801038753495805,-1.133
0.803036356372353,-1.134
0.8050339592489012,-1.133
0.8070315621254494,-1.133
0.8090291650019975,-1.13
0.8110267678785457,-1.129
0.8130243707550938,-1.13
0.815021973631642,-1.131
0.8170195765081901,-1.132
0.8190171793847383,-1.131
0.8210147822612863,-1.133
0.8230123851378345,-1.135
0.8250099880143826,-1.138
0.8270075908909308,-1.141
0.8290051937674789,-1.139
0.8310027966440271,-1.139
0.8330003995205753,-1.139
0.8349980023971234,-1.139
0.8369956052736716,-1.14
0.8389932081502196,-1.137
0.8409908110267678,-1.135
0.8429884139033159,-1.137
0.8449860167798641,-1.134
0.8469836196564122,-1.132
0.8489812225329604,-1.129
0.8509788254095085,-1.13
0.8529764282860567,-1.131
0.8549740311626048,-1.131
0.8569716340391529,-1.131
0.858969236915701,-1.127
0.8609668397922492,-1.128
0.8629644426687973,-1.13
0.8649620455453455,-1.129
0.8669596484218937,-1.129
0.8689572512984418,-1.131
0.87095485417499,-1.129
0.872952457051538,-1.129
0.8749500599280862,-1.131
0.8769476628046343,-1.132
0.8789452656811825,-1.137
0.8809428685577306,-1.135
0.8829404714342788,-1.133
0.8849380743108269,-1.131
0.8869356771873751,-1.133
0.8889332800639232,-1.135
0.8909308829404713,-1.137
0.8929284858170194,-1.133
0.8949260886935676,-1.135
0.8969236915701158,-1.138
0.8989212944466639,-1.137
0.9009188973232121,-1.135
0.9029165001997602,-1.131
0.9049141030763084,-1.135
0.9069117059528565,-1.134
0.9089093088294046,-1.131
0.9109069117059527,-1.133
0.9129045145825009,-1.133
0.914902117459049,-1.137
0.9168997203355972,-1.135
0.9188973232121453,-1.131
0.9208949260886935,-1.133
0.9228925289652417,-1.133
0.9248901318417898,-1.131
0.9268877347183379,-1.129
0.928885337594886,-1.131
0.9308829404714342,-1.131
0.9328805433479823,-1.129
0.9348781462245305,-1.133
0.9368757491010786,-1.132
0.9388733519776268,-1.135
0.9408709548541749,-1.139
0.9428685577307231,-1.137
0.9448661606072711,-1.137
0.9468637634838193,-1.137
0.9488613663603674,-1.139
0.9508589692369156,-1.139
0.9528565721134638,-1.136
0.9548541749900119,-1.136
0.9568517778665601,-1.138
0.9588493807431082,-1.137
0.9608469836196564,-1.134
0.9628445864962044,-1.134
0.9648421893727526,-1.133
0.9668397922493007,-1.138
0.9688373951258489,-1.139
0.970834998002397,-1.131
0.9728326008789452,-1.131
0.9748302037554933,-1.133
0.9768278066320415,-1.136
0.9788254095085895,-1.139
0.9808230123851377,-1.139
0.9828206152616858,-1.14
0.984818218138234,-1.137
0.9868158210147822,-1.133
0.9888134238913303,-1.133
0.9908110267678785,-1.136
0.9928086296444266,-1.135
0.9948062325209748,-1.135
0.9968038353975228,-1.137
0.998801438274071,-1.135
1.0007990411506191,-1.136
1.0027966440271674,-1.137
1.0047942469037154,-1.133
1.0067918497802635,-1.133
1.0087894526568117,-1.131
1.0107870555333598,-1.131
1.012784658409908,-1.128
1.014782261286456,-1.125
1.0167798641630044,-1.123
1.0187774670395524,-1.123
1.0207750699161007,-1.131
1.0227726727926487,-1.137
1.0247702756691968,-1.136
1.026767878545745,-1.133
1.028765481422293,-1.134
1.0307630842988413,-1.133
1.0327606871753894,-1.131
1.0347582900519376,-1.133
1.0367558929284857,-1.131
1.038753495805034,-1.132
1.040751098681582,-1.135
1.04274870155813,-1.132
1.0447463044346783,-1.132
1.0467439073112264,-1.129
1.0487415101877746,-1.125
1.0507391130643227,-1.127
1.052736715940871,-1.127
1.054734318817419,-1.125
1.0567319216939672,-1.129
1.0587295245705153,-1.131
1.0607271274470633,-1.132
1.0627247303236116,-1.135
1.0647223332001596,-1.133
1.066719936076708,-1.133
1.068717538953256,-1.131
1.0707151418298042,-1.131
1.0727127447063523,-1.133
1.0747103475829005,-1.131
1.0767079504594486,-1.13
1.0787055533359966,-1.133
1.0807031562125449,-1.131
1.082700759089093,-1.129
1.0846983619656412,-1.129
1.0866959648421892,-1.133
1.0886935677187375,-1.134
1.0906911705952855,-1.127
1.0926887734718338,-1.125
1.0946863763483818,-1.127
1.0966839792249299,-1.127
1.0986815821014781,-1.125
1.1006791849780262,-1.123
1.1026767878545745,-1.124
1.1046743907311225,-1.129
1.1066719936076708,-1.131
1.1086695964842188,-1.135
1.110667199360767,-1.134
1.1126648022373151,-1.129
1.1146624051138632,-1.137
1.1166600079904114,-1.135
1.1186576108669595,-1.129
1.1206552137435077,-1.13
1.1226528166200558,-1.129
1.124650419496604,-1.129
1.126648022373152,-1.129
1.1286456252497001,-1.131
1.1306432281262484,-1.131
1.1326408310027964,-1.125
1.1346384338793447,-1.127
1.1366360367558928,-1.131
1.138633639632441,-1.131
1.140631242508989,-1.131
1.1426288453855373,-1.127
1.1446264482620854,-1.129
1.1466240511386334,-1.131
1.1486216540151817,-1.131
1.1506192568917297,-1.131
1.152616859768278,-1.134
1.154614462644826,-1.132
1.1566120655213743,-1.127
1.1586096683979223,-1.13
1.1606072712744706,-1.128
1.1626048741510187,-1.127
1.1646024770275667,-1.127
1.166600079904115,-1.127
1.168597682780663,-1.127
1.1705952856572113,-1.128
1.1725928885337593,-1.129
1.1745904914103076,-1.127
1.1765880942868556,-1.129
1.178585697163404,-1.13
1.180583300039952,-1.13
1.1825809029165,-1.129
1.1845785057930482,-1.127
1.1865761086695963,-1.126
1.1885737115461446,-1.123
1.1905713144226926,-1.125
1.1925689172992409,-1.123
1.194566520175789,-1.121
1.1965641230523372,-1.117
1.1985617259288852,-1.111
1.2005593288054333,-1.117
1.2025569316819815,-1.118
1.2045545345585296,-1.115
1.2065521374350778,-1.116
1.2085497403116259,-1.111
1.2105473431881741,-1.111
1.2125449460647222,-1.111
1.2145425489412705,-1.109
1.2165401518178185,-1.115
1.2185377546943665,-1.112
1.2205353575709148,-1.105
1.2225329604474628,-1.103
1.2245305633240111,-1.101
1.2265281662005592,-1.097
1.2285257690771074,-1.093
1.2305233719536555,-1.092
1.2325209748302037,-1.088
1.2345185777067518,-1.077
1.2365161805832998,-1.071
1.238513783459848,-1.067
1.2405113863363961,-1.063
1.2425089892129444,-1.06
1.2445065920894924,-1.056
1.2465041949660407,-1.054
1.2485017978425887,-1.054
1.250499400719137,-1.052
1.252497003595685,-1.052
1.254494606472233,-1.061
1.2564922093487814,-1.065
1.2584898122253294,-1.062
1.2604874151018777,-1.063
1.2624850179784257,-1.063
1.264482620854974,-1.062
1.266480223731522,-1.063
1.2684778266080703,-1.064
1.2704754294846183,-1.063
1.2724730323611664,-1.062
1.2744706352377146,-1.054
1.2764682381142627,-1.049
1.278465840990811,-1.045
1.280463443867359,-1.04
1.2824610467439073,-1.034
1.2844586496204553,-1.022
1.2864562524970036,-1.014
1.2884538553735516,-1.008
1.2904514582500997,-1.004
1.292449061126648,-0.999
1.294446664003196,-0.998
1.2964442668797442,-0.997
1.2984418697562923,-0.994
1.3004394726328405,-0.994
1.3024370755093886,-0.993
1.3044346783859369,-0.993
1.306432281262485,-0.997
1.308429884139033,-1.002
1.3104274870155812,-1.01
1.3124250898921292,-1.019
1.3144226927686775,-1.018
1.3164202956452256,-1.016
1.3184178985217738,-1.016
1.3204155013983219,-1.02
1.3224131042748701,-1.026
1.3244107071514182,-1.028
1.3264083100279662,-1.03
1.3284059129045145,-1.032
1.3304035157810625,-1.032
1.3324011186576108,-1.036
1.3343987215341588,-1.042
1.336396324410707,-1.045
1.3383939272872551,-1.052
1.3403915301638032,-1.059
1.3423891330403515,-1.063
1.3443867359168995,-1.065
1.3463843387934478,-1.067
1.3483819416699958,-1.071
1.350379544546544,-1.08
1.3523771474230921,-1.089
1.3543747502996404,-1.097
1.3563723531761884,-1.102
1.3583699560527365,-1.107
1.3603675589292847,-1.113
1.3623651618058328,-1.113
1.364362764682381,-1.113
1.366360367558929,-1.109
1.3683579704354774,-1.108
1.3703555733120254,-1.111
1.3723531761885737,-1.111
1.3743507790651217,-1.107
1.3763483819416698,-1.103
1.378345984818218,-1.105
1.380343587694766,-1.102
1.3823411905713143,-1.097
1.3843387934478624,-1.101
1.3863363963244106,-1.107
1.3883339992009587,-1.109
1.390331602077507,-1.111
1.392329204954055,-1.117
1.394326807830603,-1.121
1.3963244107071513,-1.117
1.3983220135836993,-1.118
1.4003196164602476,-1.122
1.4023172193367957,-1.119
1.404314822213344,-1.12
1.406312425089892,-1.121
1.4083100279664402,-1.12
1.4103076308429883,-1.122
1.4123052337195363,-1.119
1.4143028365960846,-1.118
1.4163004394726326,-1.12
1.4182980423491809,-1.125
1.420295645225729,-1.127
1.4222932481022772,-1.127
1.4242908509788252,-1.135
1.4262884538553735,-1.141
1.4282860567319215,-1.145
1.4302836596084696,-1.144
1.4322812624850179,-1.141
1.434278865361566,-1.14
1.4362764682381142,-1.135
1.4382740711146622,-1.138
1.4402716739912105,-1.143
1.4422692768677585,-1.143
1.4442668797443068,-1.146
1.4462644826208548,-1.146
1.4482620854974029,-1.145
1.4502596883739511,-1.147
1.4522572912504992,-1.151
1.4542548941270474,-1.151
1.4562524970035955,-1.153
1.4582500998801438,-1.151
1.4602477027566918,-1.148
1.46224530563324,-1.153
1.464242908509788,-1.152
1.4662405113863362,-1.151
1.4682381142628844,-1.147
1.4702357171394325,-1.146
1.4722333200159807,-1.151
1.4742309228925288,-1.15
1.476228525769077,-1.149
1.478226128645625,-1.15
1.4802237315221733,-1.149
1.4822213343987214,-1.145
1.4842189372752694,-1.145
1.4862165401518177,-1.145
1.4882141430283657,-1.145
1.490211745904914,-1.147
1.492209348781462,-1.15
1.4942069516580103,-1.151
1.4962045545345584,-1.153
1.4982021574111066,-1.147
1.5001997602876547,-1.146
1.5021973631642027,-1.149
1.504194966040751,-1.152
1.506192568917299,-1.153
1.5081901717938473,-1.151
1.5101877746703953,-1.158
1.5121853775469436,-1.175
1.5141829804234916,-1.188
1.51618058330004,-1.2
1.518178186176588,-1.214
1.520175789053136,-1.224
1.5221733919296843,-1.226
1.5241709948062323,-1.226
1.5261685976827806,-1.22
1.5281662005593286,-1.202
1.5301638034358769,-1.183
1.532161406312425,-1.167
1.534159009188973,-1.153
1.5361566120655212,-1.143
1.5381542149420693,-1.133
1.5401518178186175,-1.133
1.5421494206951656,-1.131
1.5441470235717139,-1.125
1.546144626448262,-1.127
1.5481422293248102,-1.123
1.5501398322013582,-1.12
1.5521374350779062,-1.125
1.5541350379544545,-1.137
1.5561326408310026,-1.13
1.5581302437075508,-1.083
1.5601278465840989,-1.024
1.5621254494606471,-0.969
1.5641230523371952,-0.908
1.5661206552137434,-0.87
1.5681182580902915,-0.851
1.5701158609668395,-0.82
1.5721134638433878,-0.796
1.5741110667199358,-0.766
1.576108669596484,-0.73
1.5781062724730321,-0.704
1.5801038753495804,-0.69
1.5821014782261285,-0.688
1.5840990811026767,-0.669
1.5860966839792248,-0.632
1.5880942868557728,-0.586
1.590091889732321,-0.558
1.5920894926088691,-0.524
1.5940870954854174,-0.474
1.5960846983619654,-0.434
1.5980823012385137,-0.4
1.6000799041150617,-0.361
1.60207750699161,-0.312
1.604075109868158,-0.275
1.606072712744706,-0.238
1.6080703156212544,-0.189
1.6100679184978024,-0.153
1.6120655213743507,-0.133
1.6140631242508987,-0.119
1.616060727127447,-0.135
1.618058330003995,-0.188
1.6200559328805433,-0.24
1.6220535357570913,-0.286
1.6240511386336394,-0.337
1.6260487415101876,-0.393
1.6280463443867357,-0.464
1.630043947263284,-0.524
1.632041550139832,-0.558
1.6340391530163803,-0.574
1.6360367558929283,-0.591
1.6380343587694766,-0.607
1.6400319616460246,-0.629
1.6420295645225726,-0.665
1.644027167399121,-0.695
1.646024770275669,-0.729
1.6480223731522172,-0.771
1.6500199760287653,-0.807
1.6520175789053135,-0.834
1.6540151817818616,-0.858
1.6560127846584098,-0.877
1.6580103875349579,-0.89
1.660007990411506,-0.902
1.6620055932880542,-0.924
1.6640031961646022,-0.95
1.6660007990411505,-0.967
1.6679984019176985,-0.983
1.6699960047942468,-0.998
1.6719936076707949,-1.01
1.6739912105473431,-1.017
1.6759888134238912,-1.026
1.6779864163004392,-1.034
1.6799840191769875,-1.04
1.6819816220535355,-1.046
1.6839792249300838,-1.051
1.6859768278066318,-1.054
1.68797443068318,-1.06
1.6899720335597281,-1.067
1.6919696364362764,-1.071
1.6939672393128244,-1.071
1.6959648421893725,-1.073
1.6979624450659208,-1.079
1.6999600479424688,-1.083
1.701957650819017,-1.089
1.703955253695565,-1.093
1.7059528565721134,-1.097
1.7079504594486614,-1.097
1.7099480623252097,-1.101
1.7119456652017577,-1.103
1.7139432680783058,-1.102
1.715940870954854,-1.105
1.717938473831402,-1.103
1.7199360767079503,-1.103
1.7219336795844984,-1.105
1.7239312824610467,-1.107
1.7259288853375947,-1.107
1.727926488214143,-1.11
1.729924091090691,-1.113
1.731921693967239,-1.111
1.7339192968437873,-1.111
1.7359168997203354,-1.114
1.7379145025968836,-1.117
1.7399121054734317,-1.117
1.74190970834998,-1.116
1.743907311226528,-1.118
1.745904914103076,-1.119
1.7479025169796243,-1.117
1.7499001198561723,-1.119
1.7518977227327206,-1.119
1.7538953256092686,-1.117
1.755892928485817,-1.115
1.757890531362365,-1.119
1.7598881342389132,-1.123
1.7618857371154613,-1.125
1.7638833399920093,-1.121
1.7658809428685576,-1.113
1.7678785457451056,-1.113
1.7698761486216539,-1.117
1.771873751498202,-1.117
1.7738713543747502,-1.118
1.7758689572512982,-1.123
1.7778665601278465,-1.119
1.7798641630043945,-1.117
1.7818617658809426,-1.115
1.7838593687574908,-1.11
1.785856971634039,-1.11
1.7878545745105872,-1.11
1.7898521773871352,-1.111
1.7918497802636835,-1.115
1.7938473831402315,-1.111
1.7958449860167798,-1.111
1.7978425888933278,-1.117
1.7998401917698759,-1.113
1.8018377946464241,-1.11
1.8038353975229722,-1.109
1.8058330003995204,-1.111
1.8078306032760685,-1.11
1.8098282061526167,-1.113
1.8118258090291648,-1.113
1.813823411905713,-1.108
1.815821014782261,-1.105
1.8178186176588091,-1.105
1.8198162205353574,-1.109
1.8218138234119055,-1.109
1.8238114262884537,-1.109
1.8258090291650018,-1.107
1.82780663204155,-1.107
1.829804234918098,-1.109
1.8318018377946463,-1.109
1.8337994406711944,-1.109
1.8357970435477424,-1.107
1.8377946464242907,-1.103
1.8397922493008387,-1.105
1.841789852177387,-1.107
1.843787455053935,-1.106
1.8457850579304833,-1.1
1.8477826608070314,-1.103
1.8497802636835796,-1.104
1.8517778665601277,-1.101
1.8537754694366757,-1.102
1.855773072313224,-1.097
1.857770675189772,-1.095
1.8597682780663203,-1.096
1.8617658809428683,-1.094
1.8637634838194166,-1.095
1.8657610866959646,-1.092
1.867758689572513,-1.093
1.869756292449061,-1.098
1.871753895325609,-1.099
1.8737514982021573,-1.095
1.8757491010787053,-1.089
1.8777467039552536,-1.087
1.8797443068318016,-1.087
1.8817419097083499,-1.085
1.883739512584898,-1.087
1.8857371154614462,-1.084
1.8877347183379942,-1.08
1.8897323212145423,-1.08
1.8917299240910905,-1.079
1.8937275269676386,-1.079
1.8957251298441868,-1.077
1.8977227327207349,-1.078
1.8997203355972831,-1.082
1.9017179384738312,-1.081
1.9037155413503795,-1.075
1.9057131442269275,-1.075
1.9077107471034755,-1.075
1.9097083499800238,-1.076
1.9117059528565719,-1.077
1.9137035557331201,-1.076
1.9157011586096682,-1.079
1.9176987614862164,-1.074
1.9196963643627645,-1.07
1.9216939672393127,-1.067
1.9236915701158608,-1.067
1.9256891729924088,-1.068
1.927686775868957,-1.068
1.9296843787455051,-1.071
1.9316819816220534,-1.067
1.9336795844986014,-1.069
1.9356771873751497,-1.071
1.9376747902516978,-1.069
1.939672393128246,-1.066
1.941669996004794,-1.065
1.943667598881342,-1.066
1.9456652017578904,-1.064
1.9476628046344384,-1.062
1.9496604075109867,-1.061
1.9516580103875347,-1.062
1.953655613264083,-1.06
1.955653216140631,-1.054
1.957650819017179,-1.05
1.9596484218937273,-1.05
1.9616460247702754,-1.048
1.9636436276468237,-1.048
1.9656412305233717,-1.046
1.96763883339992,-1.048
1.969636436276468,-1.046
1.9716340391530163,-1.04
1.9736316420295643,-1.04
1.9756292449061124,-1.042
1.9776268477826606,-1.044
1.9796244506592087,-1.046
1.981622053535757,-1.044
1.983619656412305,-1.038
1.9856172592888532,-1.035
1.9876148621654013,-1.034
1.9896124650419496,-1.037
1.9916100679184976,-1.037
1.9936076707950456,-1.031
1.995605273671594,-1.028
1.997602876548142,-1.026
1.9996004794246902,-1.021
2.0015980823012383,-1.018
2.0035956851777863,-1.014
2.005593288054335,-1.014
2.007590890930883,-1.014
2.009588493807431,-1.008
2.011586096683979,-1.007
2.013583699560527,-1.006
2.0155813024370755,-1.002
2.0175789053136235,-0.997
2.0195765081901715,-0.995
2.0215741110667196,-0.994
2.023571713943268,-0.991
2.025569316819816,-0.99
2.027566919696364,-0.986
2.029564522572912,-0.985
2.0315621254494602,-0.984
2.0335597283260087,-0.98
2.0355573312025568,-0.974
2.037554934079105,-0.971
2.039552536955653,-0.968
2.0415501398322013,-0.966
2.0435477427087494,-0.964
2.0455453455852974,-0.963
2.0475429484618455,-0.961
2.0495405513383935,-0.957
2.051538154214942,-0.955
2.05353575709149,-0.949
2.055533359968038,-0.948
2.057530962844586,-0.942
2.0595285657211346,-0.94
2.0615261685976827,-0.939
2.0635237714742307,-0.932
2.0655213743507788,-0.935
2.067518977227327,-0.931
2.0695165801038753,-0.929
2.0715141829804233,-0.929
2.0735117858569714,-0.919
2.0755093887335194,-0.914
2.077506991610068,-0.912
2.079504594486616,-0.91
2.081502197363164,-0.908
2.083499800239712,-0.905
2.08549740311626,-0.901
2.0874950059928086,-0.898
2.0894926088693566,-0.897
2.0914902117459047,-0.899
2.0934878146224527,-0.898
2.095485417499001,-0.889
2.0974830203755492,-0.885
2.0994806232520973,-0.883
2.1014782261286453,-0.877
2.1034758290051934,-0.875
2.105473431881742,-0.877
2.10747103475829,-0.874
2.109468637634838,-0.868
2.111466240511386,-0.866
2.1134638433879345,-0.867
2.1154614462644825,-0.862
2.1174590491410306,-0.861
2.1194566520175786,-0.862
2.1214542548941266,-0.858
2.123451857770675,-0.855
2.125449460647223,-0.854
2.127447063523771,-0.85
2.1294446664003193,-0.849
2.1314422692768678,-0.852
2.133439872153416,-0.853
2.135437475029964,-0.854
2.137435077906512,-0.855
2.13943268078306,-0.851
2.1414302836596084,-0.851
2.1434278865361565,-0.855
2.1454254894127045,-0.857
2.1474230922892525,-0.86
2.149420695165801,-0.863
2.151418298042349,-0.865
2.153415900918897,-0.866
2.155413503795445,-0.867
2.157411106671993,-0.875
2.1594087095485417,-0.881
2.1614063124250897,-0.883
2.163403915301638,-0.886
2.165401518178186,-0.89
2.1673991210547343,-0.891
2.1693967239312824,-0.896
2.1713943268078304,-0.9
2.1733919296843784,-0.902
2.1753895325609265,-0.908
2.177387135437475,-0.918
2.179384738314023,-0.927
2.181382341190571,-0.932
2.183379944067119,-0.934
2.1853775469436676,-0.936
2.1873751498202156,-0.944
2.1893727526967637,-0.951
2.1913703555733117,-0.956
2.1933679584498598,-0.956
2.1953655613264083,-0.958
2.1973631642029563,-0.962
2.1993607670795043,-0.966
2.2013583699560524,-0.975
2.203355972832601,-0.978
2.205353575709149,-0.981
2.207351178585697,-0.987
2.209348781462245,-0.99
2.211346384338793,-0.987
2.2133439872153415,-0.986
2.2153415900918896,-0.993
2.2173391929684376,-0.999
2.2193367958449857,-1.0
2.221334398721534,-1.002
2.223332001598082,-1.004
2.2253296044746302,-1.006
2.2273272073511783,-1.013
2.2293248102277263,-1.014
2.231322413104275,-1.014
2.233320015980823,-1.019
2.235317618857371,-1.022
2.237315221733919,-1.024
2.2393128246104674,-1.023
2.2413104274870155,-1.026
2.2433080303635635,-1.026
2.2453056332401116,-1.026
2.2473032361166596,-1.029
2.249300838993208,-1.034
2.251298441869756,-1.034
2.253296044746304,-1.032
2.2552936476228522,-1.034
2.2572912504994003,-1.037
2.2592888533759488,-1.036
2.261286456252497,-1.036
2.263284059129045,-1.038
2.265281662005593,-1.04
2.2672792648821414,-1.042
2.2692768677586894,-1.043
2.2712744706352375,-1.042
2.2732720735117855,-1.044
2.2752696763883336,-1.044
2.277267279264882,-1.042
2.27926488214143,-1.045
2.281262485017978,-1.046
2.283260087894526,-1.043
2.2852576907710747,-1.04
2.2872552936476227,-1.04
2.2892528965241707,-1.043
2.291250499400719,-1.042
2.293248102277267,-1.046
2.2952457051538153,-1.048
2.2972433080303634,-1.047
2.2992409109069114,-1.046
2.3012385137834594,-1.048
2.303236116660008,-1.053
2.305233719536556,-1.057
2.307231322413104,-1.057
2.309228925289652,-1.055
2.3112265281662,-1.057
2.3132241310427486,-1.056
2.3152217339192966,-1.048
2.3172193367958447,-1.039
2.3192169396723927,-1.036
2.321214542548941,-1.038
2.3232121454254893,-1.037
2.3252097483020373,-1.038
2.3272073511785853,-1.044
2.3292049540551334,-1.042
2.331202556931682,-1.036
2.33320015980823,-1.038
2.335197762684778,-1.041
2.337195365561326,-1.04
2.3391929684378745,-1.042
2.3411905713144225,-1.041
2.3431881741909706,-1.041
2.3451857770675186,-1.042
2.3471833799440667,-1.038
2.349180982820615,-1.035
2.351178585697163,-1.036
2.3531761885737112,-1.038
2.3551737914502593,-1.034
2.357171394326808,-1.032
2.359168997203356,-1.034
2.361166600079904,-1.032
2.363164202956452,-1.036
2.365161805833,-1.044
2.3671594087095484,-1.044
2.3691570115860965,-1.04
2.3711546144626445,-1.043
2.3731522173391926,-1.047
2.375149820215741,-1.046
2.377147423092289,-1.042
2.379145025968837,-1.038
2.381142628845385,-1.036
2.3831402317219332,-1.037
2.3851378345984817,-1.04
2.3871354374750298,-1.042
2.389133040351578,-1.044
2.391130643228126,-1.044
2.3931282461046743,-1.043
2.3951258489812224,-1.046
2.3971234518577704,-1.048
2.3991210547343185,-1.05
2.4011186576108665,-1.048
2.403116260487415,-1.042
2.405113863363963,-1.038
2.407111466240511,-1.04
2.409109069117059,-1.046
2.4111066719936076,-1.046
2.4131042748701557,-1.046
2.4151018777467037,-1.047
2.4170994806232518,-1.046
2.4190970834998,-1.046
2.4210946863763483,-1.044
2.4230922892528963,-1.046
2.4250898921294444,-1.048
2.4270874950059924,-1.048
2.429085097882541,-1.046
2.431082700759089,-1.048
2.433080303635637,-1.05
2.435077906512185,-1.045
2.437075509388733,-1.044
2.4390731122652816,-1.049
2.4410707151418296,-1.049
2.4430683180183776,-1.046
2.4450659208949257,-1.046
2.447063523771474,-1.044
2.4490611266480222,-1.042
2.4510587295245703,-1.044
2.4530563324011183,-1.044
2.4550539352776664,-1.046
2.457051538154215,-1.045
2.459049141030763,-1.042
2.461046743907311,-1.046
2.463044346783859,-1.048
2.4650419496604075,-1.048
2.4670395525369555,-1.045
2.4690371554135035,-1.044
2.4710347582900516,-1.048
2.4730323611665996,-1.05
2.475029964043148,-1.044
2.477027566919696,-1.046
2.479025169796244,-1.05
2.4810227726727923,-1.05
2.4830203755493407,-1.048
2.485017978425889,-1.047
2.487015581302437,-1.05
2.489013184178985,-1.048
2.491010787055533,-1.047
2.4930083899320814,-1.048
2.4950059928086294,-1.05
2.4970035956851775,-1.053
2.4990011985617255,-1.056
2.500998801438274,-1.056
2.502996404314822,-1.054
2.50499400719137,-1.057
2.506991610067918,-1.056
2.508989212944466,-1.058
2.5109868158210147,-1.062
2.5129844186975627,-1.063
2.5149820215741108,-1.063
2.516979624450659,-1.062
2.5189772273272073,-1.061
2.5209748302037553,-1.062
2.5229724330803034,-1.063
2.5249700359568514,-1.067
2.5269676388333995,-1.069
2.528965241709948,-1.067
2.530962844586496,-1.066
2.532960447463044,-1.069
2.534958050339592,-1.07
2.5369556532161406,-1.067
2.5389532560926886,-1.067
2.5409508589692367,-1.065
2.5429484618457847,-1.067
2.5449460647223328,-1.069
2.5469436675988812,-1.067
2.5489412704754293,-1.069
2.5509388733519773,-1.067
2.5529364762285254,-1.065
2.554934079105074,-1.065
2.556931681981622,-1.06
2.55892928485817,-1.06
2.560926887734718,-1.067
2.562924490611266,-1.069
2.5649220934878145,-1.069
2.5669196963643626,-1.071
2.5689172992409106,-1.067
2.5709149021174587,-1.063
2.572912504994007,-1.064
2.574910107870555,-1.065
2.5769077107471032,-1.068
2.5789053136236513,-1.066
2.5809029165001993,-1.065
2.582900519376748,-1.073
2.584898122253296,-1.072
2.586895725129844,-1.073
2.588893328006392,-1.074
2.5908909308829404,-1.072
2.5928885337594885,-1.075
2.5948861366360365,-1.075
2.5968837395125846,-1.077
2.5988813423891326,-1.079
2.600878945265681,-1.079
2.602876548142229,-1.079
2.604874151018777,-1.077
2.606871753895325,-1.08
2.6088693567718737,-1.079
2.6108669596484217,-1.079
2.61286456252497,-1.074
2.614862165401518,-1.071
2.616859768278066,-1.075
2.6188573711546144,-1.076
2.6208549740311624,-1.08
2.6228525769077105,-1.081
2.6248501797842585,-1.079
2.626847782660807,-1.081
2.628845385537355,-1.085
2.630842988413903,-1.085
2.632840591290451,-1.079
2.634838194166999,-1.076
2.6368357970435476,-1.077
2.6388333999200957,-1.075
2.6408310027966437,-1.071
2.6428286056731918,-1.07
2.6448262085497403,-1.071
2.6468238114262883,-1.072
2.6488214143028364,-1.072
2.6508190171793844,-1.069
2.6528166200559324,-1.065
2.654814222932481,-1.063
2.656811825809029,-1.067
2.658809428685577,-1.069
2.660807031562125,-1.067
2.662804634438673,-1.079
2.6648022373152216,-1.087
2.6667998401917696,-1.087
2.6687974430683177,-1.082
2.6707950459448657,-1.079
2.672792648821414,-1.083
2.6747902516979623,-1.079
2.6767878545745103,-1.077
2.6787854574510583,-1.079
2.6807830603276064,-1.075
2.682780663204155,-1.075
2.684778266080703,-1.074
2.686775868957251,-1.071
2.688773471833799,-1.077
2.6907710747103475,-1.077
2.6927686775868955,-1.075
2.6947662804634436,-1.079
2.6967638833399916,-1.08
2.6987614862165397,-1.081
2.700759089093088,-1.081
2.702756691969636,-1.081
2.7047542948461842,-1.077
2.7067518977227323,-1.077
2.7087495005992808,-1.077
2.710747103475829,-1.078
2.712744706352377,-1.077
2.714742309228925,-1.074
2.716739912105473,-1.077
2.7187375149820214,-1.074
2.7207351178585695,-1.073
2.7227327207351175,-1.073
2.7247303236116656,-1.075
2.726727926488214,-1.077
2.728725529364762,-1.075
2.73072313224131,-1.075
2.732720735117858,-1.08
2.7347183379944062,-1.085
2.7367159408709547,-1.085
2.7387135437475028,-1.079
2.740711146624051,-1.074
2.742708749500599,-1.071
2.7447063523771473,-1.069
2.7467039552536954,-1.075
2.7487015581302434,-1.079
2.7506991610067915,-1.075
2.7526967638833395,-1.075
2.754694366759888,-1.079
2.756691969636436,-1.08
2.758689572512984,-1.079
2.760687175389532,-1.078
2.7626847782660806,-1.081
2.7646823811426287,-1.081
2.7666799840191767,-1.079
2.7686775868957247,-1.077
2.770675189772273,-1.077
2.7726727926488213,-1.077
2.7746703955253693,-1.08
2.7766679984019174,-1.081
2.7786656012784654,-1.083
2.780663204155014,-1.082
2.782660807031562,-1.081
2.78465840990811,-1.082
2.786656012784658,-1.081
2.788653615661206,-1.079
2.7906512185377546,-1.077
2.7926488214143026,-1.079
2.7946464242908506,-1.077
2.7966440271673987,-1.074
2.798641630043947,-1.075
2.800639232920495,-1.075
2.8026368357970433,-1.076
2.8046344386735913,-1.075
2.8066320415501393,-1.077
2.808629644426688,-1.079
2.810627247303236,-1.081
2.812624850179784,-1.081
2.814622453056332,-1.081
2.8166200559328805,-1.081
2.8186176588094285,-1.079
2.8206152616859765,-1.078
2.8226128645625246,-1.081
2.8246104674390726,-1.08
2.826608070315621,-1.077
2.828605673192169,-1.078
2.830603276068717,-1.078
2.8326008789452652,-1.081
2.8345984818218137,-1.079
2.8365960846983618,-1.077
2.83859368757491,-1.077
2.840591290451458,-1.075
2.842588893328006,-1.076
2.8445864962045544,-1.077
2.8465840990811024,-1.079
2.8485817019576505,-1.081
2.8505793048341985,-1.081
2.852576907710747,-1.08
2.854574510587295,-1.079
2.856572113463843,-1.079
2.858569716340391,-1.078
2.860567319216939,-1.077
2.8625649220934877,-1.077
2.8645625249700357,-1.078
2.8665601278465838,-1.081
2.868557730723132,-1.085
2.8705553335996803,-1.083
2.8725529364762283,-1.081
2.8745505393527764,-1.083
2.8765481422293244,-1.082
2.8785457451058725,-1.079
2.880543347982421,-1.079
2.882540950858969,-1.082
2.884538553735517,-1.083
2.886536156612065,-1.083
2.8885337594886136,-1.081
2.8905313623651616,-1.085
2.8925289652417097,-1.087
2.8945265681182577,-1.083
2.8965241709948057,-1.082
2.8985217738713542,-1.085
2.9005193767479023,-1.085
2.9025169796244503,-1.086
2.9045145825009984,-1.087
2.906512185377547,-1.082
2.908509788254095,-1.085
2.910507391130643,-1.09
2.912504994007191,-1.087
2.914502596883739,-1.087
2.9165001997602875,-1.087
2.9184978026368356,-1.087
2.9204954055133836,-1.09
2.9224930083899316,-1.091
2.92449061126648,-1.085
2.926488214143028,-1.078
2.928485817019576,-1.083
2.9304834198961243,-1.083
2.9324810227726723,-1.082
2.934478625649221,-1.086
2.936476228525769,-1.085
2.938473831402317,-1.083
2.940471434278865,-1.081
2.9424690371554134,-1.081
2.9444666400319615,-1.082
2.9464642429085095,-1.083
2.9484618457850575,-1.085
2.9504594486616056,-1.087
2.952457051538154,-1.083
2.954454654414702,-1.08
2.95645225729125,-1.083
2.958449860167798,-1.085
2.9604474630443467,-1.085
2.9624450659208947,-1.085
2.964442668797443,-1.085
2.966440271673991,-1.085
2.968437874550539,-1.083
2.9704354774270874,-1.081
2.9724330803036354,-1.083
2.9744306831801834,-1.083
2.9764282860567315,-1.083
2.97842588893328,-1.083
2.980423491809828,-1.087
2.982421094686376,-1.088
2.984418697562924,-1.089
2.986416300439472,-1.087
2.9884139033160206,-1.082
2.9904115061925687,-1.088
2.9924091090691167,-1.091
2.9944067119456648,-1.089
2.9964043148222133,-1.088
2.9984019176987613,-1.087
3.0003995205753093,-1.087
3.0023971234518574,-1.087
3.0043947263284054,-1.087
3.006392329204954,-1.087
3.008389932081502,-1.086
3.01038753495805,-1.088
3.012385137834598,-1.088
3.0143827407111465,-1.089
3.0163803435876946,-1.089
3.0183779464642426,-1.087
3.0203755493407907,-1.085
3.0223731522173387,-1.082
3.024370755093887,-1.079
3.0263683579704352,-1.079
3.0283659608469833,-1.075
3.0303635637235313,-1.073
3.03236116660008,-1.075
3.034358769476628,-1.071
3.036356372353176,-1.079
3.038353975229724,-1.081
3.040351578106272,-1.073
3.0423491809828205,-1.07
3.0443467838593685,-1.067
3.0463443867359166,-1.067
3.0483419896124646,-1.062
3.050339592489013,-1.052
3.052337195365561,-1.045
3.054334798242109,-1.042
3.0563324011186572,-1.041
3.0583300039952053,-1.037
3.0603276068717538,-1.034
3.062325209748302,-1.036
3.06432281262485,-1.032
3.066320415501398,-1.028
3.068318018377946,-1.027
3.0703156212544944,-1.03
3.0723132241310425,-1.032
3.0743108270075905,-1.03
3.0763084298841386,-1.027
3.078306032760687,-1.029
3.080303635637235,-1.033
3.082301238513783,-1.032
3.084298841390331,-1.028
3.086296444266879,-1.026
3.0882940471434277,-1.026
3.0902916500199757,-1.026
3.092289252896524,-1.022
3.094286855773072,-1.018
3.0962844586496203,-1.018
3.0982820615261684,-1.011
3.1002796644027164,-1.002
3.1022772672792644,-0.996
3.1042748701558125,-0.991
3.106272473032361,-0.984
3.108270075908909,-0.98
3.110267678785457,-0.977
3.112265281662005,-0.971
3.1142628845385536,-0.965
3.1162604874151016,-0.962
3.1182580902916497,-0.959
3.1202556931681977,-0.959
3.1222532960447458,-0.962
3.1242508989212943,-0.966
3.1262485017978423,-0.968
3.1282461046743903,-0.978
3.1302437075509384,-0.986
3.132241310427487,-0.984
3.134238913304035,-0.988
3.136236516180583,-0.991
3.138234119057131,-0.993
3.140231721933679,-0.997
3.1422293248102275,-1.0
3.1442269276867756,-1.002
3.1462245305633236,-1.006
3.1482221334398717,-1.012
3.15021973631642,-1.018
3.152217339192968,-1.021
3.1542149420695162,-1.023
3.1562125449460643,-1.028
3.1582101478226123,-1.032
3.160207750699161,-1.036
3.162205353575709,-1.04
3.164202956452257,-1.043
3.166200559328805,-1.05
3.1681981622053534,-1.051
3.1701957650819015,-1.052
3.1721933679584495,-1.059
3.1741909708349976,-1.065
3.1761885737115456,-1.068
3.178186176588094,-1.075
3.180183779464642,-1.074
3.18218138234119,-1.072
3.1841789852177382,-1.075
3.1861765880942867,-1.074
3.1881741909708348,-1.075
3.190171793847383,-1.076
3.192169396723931,-1.075
3.194166999600479,-1.075
3.1961646024770274,-1.071
3.1981622053535754,-1.065
3.2001598082301235,-1.063
3.2021574111066715,-1.071
3.20415501398322,-1.076
3.206152616859768,-1.075
3.208150219736316,-1.076
3.210147822612864,-1.077
3.212145425489412,-1.077
3.2141430283659607,-1.079
3.2161406312425087,-1.081
3.2181382341190568,-1.086
3.220135836995605,-1.085
3.2221334398721533,-1.082
3.2241310427487013,-1.081
3.2261286456252494,-1.081
3.2281262485017974,-1.081
3.2301238513783455,-1.081
3.232121454254894,-1.086
3.234119057131442,-1.091
3.23611666000799,-1.087
3.238114262884538,-1.087
3.2401118657610866,-1.091
3.2421094686376346,-1.093
3.2441070715141826,-1.096
3.2461046743907307,-1.099
3.2481022772672787,-1.095
3.2500998801438272,-1.097
3.2520974830203753,-1.098
3.2540950858969233,-1.097
3.2560926887734714,-1.099
3.25809029165002,-1.101
3.260087894526568,-1.106
3.262085497403116,-1.109
3.264083100279664,-1.113
3.266080703156212,-1.117
3.2680783060327605,-1.111
3.2700759089093085,-1.11
3.2720735117858566,-1.116
3.2740711146624046,-1.117
3.276068717538953,-1.113
3.278066320415501,-1.112
3.280063923292049,-1.109
3.2820615261685973,-1.109
3.2840591290451453,-1.105
3.286056731921694,-1.103
3.288054334798242,-1.108
3.29005193767479,-1.107
3.292049540551338,-1.109
3.2940471434278864,-1.109
3.2960447463044344,-1.107
3.2980423491809825,-1.107
3.3000399520575305,-1.108
3.3020375549340786,-1.105
3.304035157810627,-1.105
3.306032760687175,-1.109
3.308030363563723,-1.113
3.310027966440271,-1.113
3.3120255693168197,-1.11
3.3140231721933677,-1.109
3.3160207750699158,-1.108
3.318018377946464,-1.109
3.320015980823012,-1.11
3.3220135836995603,-1.113
3.3240111865761084,-1.117
3.3260087894526564,-1.119
3.3280063923292045,-1.119
3.330003995205753,-1.127
3.332001598082301,-1.139
3.333999200958849,-1.151
3.335996803835397,-1.169
3.337994406711945,-1.184
3.3399920095884936,-1.188
3.3419896124650417,-1.192
3.3439872153415897,-1.19
3.3459848182181378,-1.174
3.3479824210946862,-1.159
3.3499800239712343,-1.147
3.3519776268477823,-1.129
3.3539752297243304,-1.112
3.3559728326008784,-1.1
3.357970435477427,-1.096
3.359968038353975,-1.097
3.361965641230523,-1.092
3.363963244107071,-1.095
3.3659608469836195,-1.093
3.3679584498601676,-1.089
3.3699560527367156,-1.094
3.3719536556132637,-1.109
3.3739512584898117,-1.123
3.37594886136636,-1.097
3.3779464642429082,-1.039
3.3799440671194563,-0.979
3.3819416699960043,-0.924
3.383939272872553,-0.883
3.385936875749101,-0.87
3.387934478625649,-0.853
3.389932081502197,-0.83
3.391929684378745,-0.806
3.3939272872552935,-0.77
3.3959248901318415,-0.742
3.3979224930083896,-0.729
3.3999200958849376,-0.728
3.401917698761486,-0.718
3.403915301638034,-0.686
3.405912904514582,-0.64
3.40791050739113,-0.6
3.4099081102676783,-0.556
3.4119057131442267,-0.5
3.413903316020775,-0.457
3.415900918897323,-0.415
3.417898521773871,-0.361
3.4198961246504194,-0.311
3.4218937275269674,-0.271
3.4238913304035155,-0.236
3.4258889332800635,-0.197
3.4278865361566115,-0.159
3.42988413903316,-0.138
3.431881741909708,-0.125
3.433879344786256,-0.131
3.435876947662804,-0.175
3.4378745505393526,-0.221
3.4398721534159007,-0.253
3.4418697562924487,-0.303
3.4438673591689968,-0.36
3.445864962045545,-0.418
3.4478625649220933,-0.47
3.4498601677986414,-0.508
3.4518577706751894,-0.524
3.4538553735517374,-0.541
3.455852976428286,-0.567
3.457850579304834,-0.594
3.459848182181382,-0.622
3.46184578505793,-0.644
3.463843387934478,-0.677
3.4658409908110266,-0.723
3.4678385936875746,-0.77
3.4698361965641227,-0.8
3.4718337994406707,-0.819
3.473831402317219,-0.836
3.4758290051937673,-0.848
3.4778266080703153,-0.864
3.4798242109468633,-0.885
3.4818218138234114,-0.907
3.48381941669996,-0.924
3.485817019576508,-0.94
3.487814622453056,-0.959
3.489812225329604,-0.971
3.491809828206152,-0.98
3.4938074310827005,-0.992
3.4958050339592486,-1.0
3.4978026368357966,-1.008
3.4998002397123447,-1.016
3.501797842588893,-1.022
3.503795445465441,-1.023
3.5057930483419892,-1.026
3.5077906512185373,-1.028
3.5097882540950853,-1.033
3.511785856971634,-1.04
3.513783459848182,-1.044
3.51578106272473,-1.044
3.517778665601278,-1.044
3.5197762684778264,-1.049
3.5217738713543745,-1.055
3.5237714742309225,-1.058
3.5257690771074706,-1.058
3.5277666799840186,-1.056
3.529764282860567,-1.056
3.531761885737115,-1.057
3.533759488613663,-1.06
3.5357570914902112,-1.063
3.5377546943667597,-1.066
3.5397522972433078,-1.067
3.541749900119856,-1.069
3.543747502996404,-1.073
3.545745105872952,-1.072
3.5477427087495004,-1.075
3.5497403116260484,-1.079
3.5517379145025965,-1.079
3.5537355173791445,-1.08
3.555733120255693,-1.081
3.557730723132241,-1.083
3.559728326008789,-1.084
3.561725928885337,-1.083
3.563723531761885,-1.081
3.5657211346384337,-1.078
3.5677187375149817,-1.08
3.5697163403915297,-1.081
3.571713943268078,-1.081
3.5737115461446263,-1.081
3.5757091490211743,-1.081
3.5777067518977224,-1.079
3.5797043547742704,-1.079
3.5817019576508184,-1.079
3.583699560527367,-1.081
3.585697163403915,-1.085
3.587694766280463,-1.077
3.589692369157011,-1.075
3.5916899720335596,-1.082
3.5936875749101076,-1.081
3.5956851777866556,-1.079
3.5976827806632037,-1.073
3.5996803835397517,-1.073
3.6016779864163,-1.081
3.6036755892928483,-1.08
3.6056731921693963,-1.076
3.6076707950459443,-1.078
3.609668397922493,-1.079
3.611666000799041,-1.085
3.613663603675589,-1.086
3.615661206552137,-1.083
3.617658809428685,-1.081
3.6196564123052335,-1.079
3.6216540151817815,-1.082
3.6236516180583296,-1.081
3.6256492209348776,-1.08
3.627646823811426,-1.082
3.629644426687974,-1.079
3.631642029564522,-1.079
3.6336396324410702,-1.077
3.6356372353176183,-1.076
3.6376348381941668,-1.073
3.639632441070715,-1.074
3.641630043947263,-1.076
3.643627646823811,-1.073
3.6456252497003594,-1.074
3.6476228525769074,-1.075
3.6496204554534555,-1.075
3.6516180583300035,-1.072
3.6536156612065516,-1.075
3.6556132640831,-1.076
3.657610866959648,-1.071
3.659608469836196,-1.07
3.661606072712744,-1.067
3.6636036755892927,-1.065
3.6656012784658407,-1.065
3.6675988813423888,-1.062
3.669596484218937,-1.067
3.671594087095485,-1.067
3.6735916899720333,-1.063
3.6755892928485814,-1.067
3.6775868957251294,-1.066
3.6795844986016775,-1.067
3.681582101478226,-1.066
3.683579704354774,-1.062
3.685577307231322,-1.063
3.68757491010787,-1.062
3.689572512984418,-1.061
3.6915701158609666,-1.059
3.6935677187375147,-1.055
3.6955653216140627,-1.058
3.6975629244906107,-1.06
3.6995605273671592,-1.06
3.7015581302437073,-1.06
3.7035557331202553,-1.058
3.7055533359968034,-1.054
3.7075509388733514,-1.054
3.7095485417499,-1.05
3.711546144626448,-1.05
3.713543747502996,-1.046
3.715541350379544,-1.041
3.7175389532560925,-1.042
3.7195365561326406,-1.048
3.7215341590091886,-1.054
3.7235317618857366,-1.054
3.7255293647622847,-1.052
3.727526967638833,-1.048
3.729524570515381,-1.048
3.7315221733919293,-1.048
3.7335197762684773,-1.048
3.735517379145026,-1.048
3.737514982021574,-1.047
3.739512584898122,-1.044
3.74151018777467,-1.043
3.743507790651218,-1.043
3.7455053935277665,-1.044
3.7475029964043145,-1.046
3.7495005992808625,-1.045
3.7514982021574106,-1.044
3.753495805033959,-1.042
3.755493407910507,-1.04
3.757491010787055,-1.039
3.759488613663603,-1.037
3.7614862165401513,-1.036
3.7634838194166997,-1.036
3.765481422293248,-1.038
3.767479025169796,-1.036
3.769476628046344,-1.032
3.7714742309228924,-1.03
3.7734718337994404,-1.031
3.7754694366759884,-1.032
3.7774670395525365,-1.028
3.7794646424290845,-1.028
3.781462245305633,-1.024
3.783459848182181,-1.02
3.785457451058729,-1.02
3.787455053935277,-1.021
3.7894526568118256,-1.024
3.7914502596883737,-1.023
3.7934478625649217,-1.019
3.7954454654414698,-1.018
3.797443068318018,-1.018
3.7994406711945663,-1.012
3.8014382740711143,-1.009
3.8034358769476624,-1.004
3.8054334798242104,-1.004
3.807431082700759,-1.006
3.809428685577307,-1.0
3.811426288453855,-0.998
3.813423891330403,-0.999
3.815421494206951,-1.004
3.8174190970834996,-1.006
3.8194166999600476,-1.002
3.8214143028365957,-0.998
3.8234119057131437,-0.995
3.825409508589692,-0.988
3.8274071114662402,-0.992
3.8294047143427883,-0.999
3.8314023172193363,-0.993
3.8333999200958844,-0.99
3.835397522972433,-0.986
3.837395125848981,-0.978
3.839392728725529,-0.976
3.841390331602077,-0.973
3.8433879344786255,-0.969
3.8453855373551735,-0.966
3.8473831402317216,-0.965
3.8493807431082696,-0.962
3.8513783459848177,-0.958
3.853375948861366,-0.955
3.855373551737914,-0.948
3.8573711546144622,-0.944
3.8593687574910103,-0.942
3.8613663603675588,-0.938
3.863363963244107,-0.936
3.865361566120655,-0.935
3.867359168997203,-0.936
3.869356771873751,-0.933
3.8713543747502994,-0.928
3.8733519776268475,-0.927
3.8753495805033955,-0.924
3.8773471833799436,-0.922
3.879344786256492,-0.92
3.88134238913304,-0.913
3.883339992009588,-0.911
3.885337594886136,-0.911
3.887335197762684,-0.906
3.8893328006392327,-0.901
3.8913304035157807,-0.897
3.893328006392329,-0.893
3.895325609268877,-0.893
3.897323212145425,-0.89
3.8993208150219734,-0.888
3.9013184178985214,-0.89
3.9033160207750695,-0.884
3.9053136236516175,-0.879
3.907311226528166,-0.875
3.909308829404714,-0.873
3.911306432281262,-0.869
3.91330403515781,-0.865
3.915301638034358,-0.863
3.9172992409109066,-0.862
3.9192968437874547,-0.858
3.9212944466640027,-0.856
3.9232920495405508,-0.852
3.9252896524170993,-0.846
3.9272872552936473,-0.845
3.9292848581701953,-0.847
3.9312824610467434,-0.846
3.9332800639232914,-0.844
3.93527766679984,-0.844
3.937275269676388,-0.843
3.939272872552936,-0.837
3.941270475429484,-0.833
3.9432680783060325,-0.834
3.9452656811825806,-0.833
3.9472632840591286,-0.833
3.9492608869356767,-0.834
3.9512584898122247,-0.836
3.953256092688773,-0.838
3.9552536955653212,-0.839
3.9572512984418693,-0.841
3.9592489013184173,-0.841
3.961246504194966,-0.836
3.963244107071514,-0.838
3.965241709948062,-0.838
3.96723931282461,-0.841
3.969236915701158,-0.845
3.9712345185777065,-0.849
3.9732321214542545,-0.857
3.9752297243308026,-0.859
3.9772273272073506,-0.862
3.979224930083899,-0.865
3.981222532960447,-0.867
3.983220135836995,-0.871
3.9852177387135432,-0.875
3.9872153415900913,-0.877
3.9892129444666398,-0.882
3.991210547343188,-0.887
3.993208150219736,-0.892
3.995205753096284,-0.895
3.9972033559728324,-0.897
3.9992009588493804,-0.902
4.0011985617259285,-0.905
4.0031961646024765,-0.909
4.005193767479025,-0.914
4.007191370355573,-0.919
4.009188973232121,-0.923
4.01118657610867,-0.927
4.013184178985218,-0.933
4.015181781861766,-0.936
4.017179384738314,-0.942
4.019176987614862,-0.946
4.02117459049141,-0.947
4.023172193367958,-0.954
4.025169796244506,-0.962
4.027167399121054,-0.964
4.029165001997603,-0.965
4.031162604874151,-0.962
4.033160207750699,-0.965
4.035157810627247,-0.966
4.037155413503795,-0.966
4.039153016380343,-0.971
4.041150619256891,-0.971
4.043148222133439,-0.972
4.045145825009987,-0.978
4.047143427886536,-0.981
4.049141030763084,-0.982
4.051138633639632,-0.985
4.05313623651618,-0.989
4.055133839392728,-0.992
4.057131442269276,-0.994
4.059129045145824,-0.997
4.061126648022372,-1.0
4.0631242508989205,-1.003
4.065121853775469,-1.009
4.0671194566520175,-1.008
4.0691170595285655,-1.01
4.0711146624051135,-1.011
4.073112265281662,-1.009
4.07510986815821,-1.01
4.077107471034758,-1.01
4.079105073911306,-1.012
4.081102676787854,-1.011
4.083100279664403,-1.012
4.085097882540951,-1.01
4.087095485417499,-1.009
4.089093088294047,-1.01
4.091090691170595,-1.008
4.093088294047143,-1.012
4.095085896923691,-1.011
4.097083499800239,-1.01
4.099081102676787,-1.014
4.101078705553336,-1.012
4.103076308429884,-1.014
4.105073911306432,-1.014
4.10707151418298,-1.01
4.109069117059528,-1.01
4.111066719936076,-1.011
4.113064322812624,-1.012
4.115061925689172,-1.015
4.11705952856572,-1.02
4.119057131442269,-1.018
4.121054734318817,-1.014
4.123052337195365,-1.016
4.125049940071913,-1.016
4.127047542948461,-1.015
4.1290451458250095,-1.015
4.1310427487015575,-1.016
4.133040351578106,-1.018
4.135037954454654,-1.016
4.1370355573312025,-1.016
4.139033160207751,-1.015
4.141030763084299,-1.016
4.143028365960847,-1.022
4.145025968837395,-1.022
4.147023571713943,-1.018
4.149021174590491,-1.018
4.151018777467039,-1.018
4.153016380343587,-1.021
4.155013983220136,-1.018
4.157011586096684,-1.018
4.159009188973232,-1.02
4.16100679184978,-1.018
4.163004394726328,-1.019
4.165001997602876,-1.02
4.166999600479424,-1.018
4.168997203355972,-1.014
4.17099480623252,-1.012
4.172992409109069,-1.014
4.174990011985617,-1.017
4.176987614862165,-1.018
4.178985217738713,-1.019
4.180982820615261,-1.02
4.182980423491809,-1.02
4.184978026368357,-1.019
4.186975629244905,-1.021
4.1889732321214534,-1.024
4.190970834998002,-1.023
4.19296843787455,-1.022
4.1949660407510985,-1.022
4.1969636436276465,-1.025
4.1989612465041946,-1.023
4.200958849380743,-1.02
4.202956452257291,-1.023
4.204954055133839,-1.022
4.206951658010387,-1.023
4.208949260886936,-1.025
4.210946863763484,-1.022
4.212944466640032,-1.022
4.21494206951658,-1.025
4.216939672393128,-1.026
4.218937275269676,-1.023
4.220934878146224,-1.022
4.222932481022772,-1.023
4.22493008389932,-1.021
4.226927686775869,-1.026
4.228925289652417,-1.03
4.230922892528965,-1.032
4.232920495405513,-1.026
4.234918098282061,-1.024
4.236915701158609,-1.028
4.238913304035157,-1.024
4.240910906911705,-1.028
4.242908509788253,-1.028
4.244906112664802,-1.02
4.24690371554135,-1.026
4.248901318417898,-1.03
4.250898921294446,-1.026
4.252896524170994,-1.026
4.254894127047542,-1.026
4.2568917299240905,-1.024
4.2588893328006385,-1.024
4.260886935677187,-1.028
4.2628845385537355,-1.029
4.2648821414302835,-1.027
4.266879744306832,-1.03
4.26887734718338,-1.034
4.270874950059928,-1.032
4.272872552936476,-1.033
4.274870155813024,-1.036
4.276867758689572,-1.032
4.27886536156612,-1.034
4.280862964442669,-1.036
4.282860567319217,-1.036
4.284858170195765,-1.036
4.286855773072313,-1.035
4.288853375948861,-1.03
4.290850978825409,-1.03
4.292848581701957,-1.038
4.294846184578505,-1.038
4.296843787455053,-1.042
4.298841390331602,-1.044
4.30083899320815,-1.038
4.302836596084698,-1.038
4.304834198961246,-1.04
4.306831801837794,-1.042
4.308829404714342,-1.044
4.31082700759089,-1.047
4.312824610467438,-1.049
4.314822213343986,-1.043
4.316819816220535,-1.038
4.318817419097083,-1.038
4.320815021973631,-1.036
4.3228126248501795,-1.038
4.3248102277267275,-1.042
4.326807830603276,-1.044
4.328805433479824,-1.047
4.330803036356372,-1.044
4.33280063923292,-1.044
4.334798242109469,-1.05
4.336795844986017,-1.044
4.338793447862565,-1.042
4.340791050739113,-1.046
4.342788653615661,-1.047
4.344786256492209,-1.05
4.346783859368757,-1.056
4.348781462245305,-1.056
4.350779065121853,-1.053
4.352776667998402,-1.05
4.35477427087495,-1.051
4.356771873751498,-1.05
4.358769476628046,-1.048
4.360767079504594,-1.046
4.362764682381142,-1.047
4.36476228525769,-1.051
4.366759888134238,-1.05
4.368757491010786,-1.05
4.370755093887335,-1.053
4.372752696763883,-1.055
4.374750299640431,-1.06
4.376747902516979,-1.058
4.378745505393527,-1.056
4.380743108270075,-1.058
4.3827407111466234,-1.06
4.3847383140231715,-1.06
4.3867359168997195,-1.06
4.3887335197762685,-1.061
4.3907311226528165,-1.062
4.3927287255293646,-1.062
4.394726328405913,-1.06
4.396723931282461,-1.061
4.398721534159009,-1.062
4.400719137035557,-1.063
4.402716739912105,-1.063
4.404714342788653,-1.064
4.406711945665202,-1.067
4.40870954854175,-1.067
4.410707151418298,-1.067
4.412704754294846,-1.068
4.414702357171394,-1.067
4.416699960047942,-1.065
4.41869756292449,-1.069
4.420695165801038,-1.069
4.422692768677586,-1.068
4.424690371554135,-1.069
4.426687974430683,-1.067
4.428685577307231,-1.067
4.430683180183779,-1.067
4.432680783060327,-1.071
4.434678385936875,-1.073
4.436675988813423,-1.075
4.438673591689971,-1.073
4.440671194566519,-1.073
4.442668797443068,-1.075
4.444666400319616,-1.073
4.446664003196164,-1.073
4.448661606072712,-1.07
4.4506592089492605,-1.068
4.4526568118258085,-1.069
4.454654414702357,-1.073
4.456652017578905,-1.073
4.458649620455453,-1.069
4.460647223332002,-1.071
4.46264482620855,-1.071
4.464642429085098,-1.071
4.466640031961646,-1.071
4.468637634838194,-1.074
4.470635237714742,-1.073
4.47263284059129,-1.071
4.474630443467838,-1.071
4.476628046344386,-1.068
4.478625649220935,-1.067
4.480623252097483,-1.066
4.482620854974031,-1.067
4.484618457850579,-1.067
4.486616060727127,-1.065
4.488613663603675,-1.067
4.490611266480223,-1.07
4.492608869356771,-1.071
4.494606472233319,-1.071
4.496604075109868,-1.073
4.498601677986416,-1.075
4.500599280862964,-1.076
4.502596883739512,-1.077
4.50459448661606,-1.08
4.506592089492608,-1.08
4.508589692369156,-1.075
4.5105872952457045,-1.075
4.5125848981222525,-1.076
4.5145825009988005,-1.077
4.5165801038753495,-1.078
4.5185777067518975,-1.081
4.520575309628446,-1.079
4.522572912504994,-1.077
4.524570515381542,-1.077
4.52656811825809,-1.071
4.528565721134638,-1.073
4.530563324011186,-1.073
4.532560926887734,-1.075
4.534558529764283,-1.084
4.536556132640831,-1.086
4.538553735517379,-1.082
4.540551338393927,-1.081
4.542548941270475,-1.081
4.544546544147023,-1.081
4.546544147023571,-1.081
4.548541749900119,-1.086
4.550539352776667,-1.089
4.552536955653216,-1.083
4.554534558529764,-1.078
4.556532161406312,-1.077
4.55852976428286,-1.078
4.560527367159408,-1.081
4.562524970035956,-1.081
4.564522572912504,-1.078
4.566520175789052,-1.077
4.5685177786656,-1.079
4.570515381542149,-1.075
4.572512984418697,-1.074
4.574510587295245,-1.077
4.5765081901717934,-1.077
4.5785057930483415,-1.081
4.5805033959248895,-1.081
4.582500998801438,-1.079
4.584498601677986,-1.08
4.586496204554534,-1.078
4.588493807431083,-1.08
4.590491410307631,-1.083
4.592489013184179,-1.081
4.594486616060727,-1.079
4.596484218937275,-1.078
4.598481821813823,-1.081
4.600479424690371,-1.083
4.602477027566919,-1.085
4.604474630443467,-1.085
4.606472233320016,-1.079
4.608469836196564,-1.076
4.610467439073112,-1.075
4.61246504194966,-1.08
4.614462644826208,-1.079
4.616460247702756,-1.075
4.618457850579304,-1.075
4.620455453455852,-1.072
4.6224530563324,-1.071
4.624450659208949,-1.075
4.626448262085497,-1.079
4.628445864962045,-1.079
4.630443467838593,-1.081
4.632441070715141,-1.087
4.634438673591689,-1.082
4.636436276468237,-1.079
4.6384338793447855,-1.082
4.6404314822213335,-1.081
4.642429085097882,-1.079
4.6444266879744305,-1.077
4.6464242908509785,-1.077
4.648421893727527,-1.079
4.650419496604075,-1.086
4.652417099480623,-1.085
4.654414702357171,-1.083
4.656412305233719,-1.08
4.658409908110267,-1.081
4.660407510986816,-1.086
4.662405113863364,-1.085
4.664402716739912,-1.087
4.66640031961646,-1.087
4.668397922493008,-1.087
4.670395525369556,-1.089
4.672393128246104,-1.087
4.674390731122652,-1.089
4.6763883339992,-1.088
4.678385936875749,-1.085
4.680383539752297,-1.087
4.682381142628845,-1.086
4.684378745505393,-1.079
4.686376348381941,-1.077
4.688373951258489,-1.08
4.690371554135037,-1.083
4.692369157011585,-1.085
4.694366759888133,-1.085
4.696364362764682,-1.086
4.69836196564123,-1.085
4.700359568517778,-1.077
4.702357171394326,-1.072
4.7043547742708745,-1.081
4.7063523771474225,-1.084
4.7083499800239705,-1.087
4.710347582900519,-1.085
4.712345185777067,-1.081
4.714342788653616,-1.083
4.716340391530164,-1.079
4.718337994406712,-1.078
4.72033559728326,-1.073
4.722333200159808,-1.069
4.724330803036356,-1.077
4.726328405912904,-1.079
4.728326008789452,-1.081
4.730323611666,-1.083
4.732321214542549,-1.082
4.734318817419097,-1.079
4.736316420295645,-1.08
4.738314023172193,-1.084
4.740311626048741,-1.082
4.742309228925289,-1.081
4.744306831801837,-1.08
4.746304434678385,-1.081
4.748302037554933,-1.082
4.750299640431482,-1.084
4.75229724330803,-1.083
4.754294846184578,-1.083
4.756292449061126,-1.089
4.758290051937674,-1.089
4.760287654814222,-1.087
4.76228525769077,-1.086
4.764282860567318,-1.085
4.7662804634438665,-1.085
4.768278066320415,-1.085
4.770275669196963,-1.083
4.7722732720735115,-1.081
4.7742708749500595,-1.086
4.776268477826608,-1.091
4.778266080703156,-1.089
4.780263683579704,-1.087
4.782261286456252,-1.083
4.7842588893328,-1.083
4.786256492209349,-1.088
4.788254095085897,-1.087
4.790251697962445,-1.083
4.792249300838993,-1.079
4.794246903715541,-1.08
4.796244506592089,-1.083
4.798242109468637,-1.081
4.800239712345185,-1.078
4.802237315221733,-1.079
4.804234918098282,-1.081
4.80623252097483,-1.08
4.808230123851378,-1.078
4.810227726727926,-1.076
4.812225329604474,-1.078
4.814222932481022,-1.083
4.81622053535757,-1.081
4.818218138234118,-1.081
4.820215741110666,-1.08
4.822213343987215,-1.083
4.824210946863763,-1.087
4.826208549740311,-1.088
4.828206152616859,-1.09
4.830203755493407,-1.089
4.8322013583699555,-1.088
4.8341989612465035,-1.086
4.8361965641230515,-1.091
4.8381941669996,-1.092
4.8401917698761485,-1.089
4.842189372752697,-1.086
4.844186975629245,-1.083
4.846184578505793,-1.083
4.848182181382341,-1.081
4.850179784258889,-1.083
4.852177387135437,-1.083
4.854174990011985,-1.085
4.856172592888533,-1.077
4.858170195765082,-1.073
4.86016779864163,-1.077
4.862165401518178,-1.073
4.864163004394726,-1.071
4.866160607271274,-1.067
4.868158210147822,-1.065
4.87015581302437,-1.068
4.872153415900918,-1.069
4.874151018777466,-1.065
4.876148621654015,-1.058
4.878146224530563,-1.052
4.880143827407111,-1.049
4.882141430283659,-1.046
4.884139033160207,-1.04
4.886136636036755,-1.04
4.888134238913303,-1.04
4.890131841789851,-1.038
4.892129444666399,-1.038
4.894127047542948,-1.037
4.896124650419496,-1.038
4.8981222532960444,-1.036
4.9001198561725925,-1.032
4.9021174590491405,-1.03
4.904115061925689,-1.032
4.906112664802237,-1.032
4.908110267678785,-1.03
4.910107870555333,-1.03
4.912105473431882,-1.028
4.91410307630843,-1.026
4.916100679184978,-1.026
4.918098282061526,-1.026
4.920095884938074,-1.022
4.922093487814622,-1.014
4.92409109069117,-1.004
4.926088693567718,-0.998
4.928086296444266,-0.986
4.930083899320815,-0.976
4.932081502197363,-0.974
4.934079105073911,-0.969
4.936076707950459,-0.965
4.938074310827007,-0.96
4.940071913703555,-0.958
4.942069516580103,-0.959
4.944067119456651,-0.96
4.946064722333199,-0.963
4.948062325209748,-0.968
4.950059928086296,-0.974
4.952057530962844,-0.975
4.954055133839392,-0.984
4.95605273671594,-0.987
4.958050339592488,-0.987
4.9600479424690365,-0.992
4.9620455453455845,-0.993
4.9640431482221326,-1.002
4.9660407510986815,-1.004
4.9680383539752295,-1.006
4.970035956851778,-1.01
4.972033559728326,-1.018
4.974031162604874,-1.024
4.976028765481422,-1.024
4.97802636835797,-1.028
4.980023971234518,-1.028
4.982021574111066,-1.033
4.984019176987615,-1.036
4.986016779864163,-1.038
4.988014382740711,-1.04
4.990011985617259,-1.046
4.992009588493807,-1.05
4.994007191370355,-1.054
4.996004794246903,-1.06
4.998002397123451,-1.069
4.999999999999999,-1.072
5.001997602876548,-1.066
5.003995205753096,-1.067
5.005992808629644,-1.069
5.007990411506192,-1.071
5.00998801438274,-1.069
5.011985617259288,-1.071
5.013983220135836,-1.075
5.015980823012384,-1.073
5.017978425888932,-1.069
5.019976028765481,-1.069
5.021973631642029,-1.069
5.023971234518577,-1.062
5.0259688373951255,-1.071
5.0279664402716735,-1.079
5.0299640431482215,-1.078
5.03196164602477,-1.081
5.033959248901318,-1.085
5.035956851777866,-1.089
5.037954454654415,-1.088
5.039952057530963,-1.083
5.041949660407511,-1.087
5.043947263284059,-1.091
5.045944866160607,-1.084
5.047942469037155,-1.081
5.049940071913703,-1.078
5.051937674790251,-1.075
5.053935277666799,-1.078
5.055932880543348,-1.079
5.057930483419896,-1.083
5.059928086296444,-1.079
5.061925689172992,-1.083
5.06392329204954,-1.095
5.065920894926088,-1.104
5.067918497802636,-1.113
5.069916100679184,-1.107
5.071913703555732,-1.103
5.073911306432281,-1.106
5.075908909308829,-1.105
5.077906512185377,-1.101
5.079904115061925,-1.104
5.081901717938473,-1.105
5.083899320815021,-1.105
5.085896923691569,-1.109
5.0878945265681175,-1.108
5.0898921294446655,-1.108
5.0918897323212144,-1.114
5.0938873351977625,-1.115
5.0958849380743105,-1.111
5.097882540950859,-1.112
5.099880143827407,-1.113
5.101877746703955,-1.109
5.103875349580503,-1.107
5.105872952457051,-1.109
5.107870555333599,-1.113
5.109868158210148,-1.111
5.111865761086696,-1.112
5.113863363963244,-1.113
5.115860966839792,-1.115
5.11785856971634,-1.113
5.119856172592888,-1.111
5.121853775469436,-1.115
5.123851378345984,-1.117
5.125848981222532,-1.12
5.127846584099081,-1.117
5.129844186975629,-1.117
5.131841789852177,-1.121
5.133839392728725,-1.125
5.135836995605273,-1.125
5.137834598481821,-1.121
5.139832201358369,-1.121
5.141829804234917,-1.119
5.143827407111465,-1.121
5.145825009988014,-1.123
5.147822612864562,-1.129
5.14982021574111,-1.133
5.151817818617658,-1.133
5.1538154214942065,-1.135
5.1558130243707545,-1.139
5.1578106272473025,-1.154
5.159808230123851,-1.169
5.161805833000399,-1.179
5.163803435876948,-1.185
5.165801038753496,-1.189
5.167798641630044,-1.188
5.169796244506592,-1.173
5.17179384738314,-1.157
5.173791450259688,-1.144
5.175789053136236,-1.131
5.177786656012784,-1.112
5.179784258889332,-1.1
5.181781861765881,-1.103
5.183779464642429,-1.103
5.185777067518977,-1.096
5.187774670395525,-1.099
5.189772273272073,-1.101
5.191769876148621,-1.095
5.193767479025169,-1.103
5.195765081901717,-1.117
5.197762684778265,-1.121
5.199760287654814,-1.103
5.201757890531362,-1.046
5.20375549340791,-0.985
5.205753096284458,-0.93
5.207750699161006,-0.894
5.209748302037554,-0.886
5.211745904914102,-0.868
5.21374350779065,-0.853
5.2157411106671985,-0.83
5.217738713543747,-0.792
5.2197363164202955,-0.759
5.2217339192968435,-0.738
5.2237315221733915,-0.733
5.22572912504994,-0.727
5.227726727926488,-0.709
5.229724330803036,-0.663
5.231721933679584,-0.622
5.233719536556132,-0.571
5.235717139432681,-0.502
5.237714742309229,-0.454
5.239712345185777,-0.408
5.241709948062325,-0.346
5.243707550938873,-0.287
5.245705153815421,-0.25
5.247702756691969,-0.21
5.249700359568517,-0.174
5.251697962445065,-0.14
5.253695565321614,-0.111
5.255693168198162,-0.101
5.25769077107471,-0.114
5.259688373951258,-0.166
5.261685976827806,-0.199
5.263683579704354,-0.227
5.265681182580902,-0.271
5.26767878545745,-0.336
5.269676388333998,-0.411
5.271673991210547,-0.448
5.273671594087095,-0.473
5.275669196963643,-0.492
5.277666799840191,-0.507
5.279664402716739,-0.541
5.2816620055932875,-0.579
5.2836596084698355,-0.615
5.2856572113463836,-0.64
5.287654814222932,-0.667
5.2896524170994805,-0.711
5.291650019976029,-0.758
5.293647622852577,-0.799
5.295645225729125,-0.825
5.297642828605673,-0.842
5.299640431482221,-0.852
5.301638034358769,-0.872
5.303635637235317,-0.896
5.305633240111865,-0.917
5.307630842988414,-0.937
5.309628445864962,-0.951
5.31162604874151,-0.965
5.313623651618058,-0.975
5.315621254494606,-0.984
5.317618857371154,-0.993
5.319616460247702,-1.004
5.32161406312425,-1.014
5.323611666000798,-1.02
5.325609268877346,-1.024
5.327606871753895,-1.026
5.329604474630443,-1.032
5.331602077506991,-1.036
5.333599680383539,-1.045
5.335597283260087,-1.05
5.337594886136635,-1.054
5.339592489013183,-1.062
5.341590091889731,-1.062
5.3435876947662795,-1.063
5.345585297642828,-1.069
5.3475829005193765,-1.073
5.3495805033959245,-1.073
5.3515781062724725,-1.073
5.353575709149021,-1.076
5.355573312025569,-1.074
5.357570914902117,-1.078
5.359568517778665,-1.085
5.361566120655213,-1.083
5.363563723531762,-1.09
5.36556132640831,-1.091
5.367558929284858,-1.091
5.369556532161406,-1.091
5.371554135037954,-1.094
5.373551737914502,-1.098
5.37554934079105,-1.096
5.377546943667598,-1.099
5.379544546544146,-1.098
5.381542149420695,-1.097
5.383539752297243,-1.097
5.385537355173791,-1.093
5.387534958050339,-1.093
5.389532560926887,-1.095
5.391530163803435,-1.089
5.393527766679983,-1.087
5.395525369556531,-1.094
5.397522972433079,-1.099
5.399520575309628,-1.103
5.401518178186176,-1.101
5.403515781062724,-1.097
5.405513383939272,-1.097
5.40751098681582,-1.095
5.4095085896923685,-1.095
5.4115061925689165,-1.095
5.413503795445465,-1.095
5.415501398322013,-1.102
5.4174990011985615,-1.102
5.41949660407511,-1.099
5.421494206951658,-1.099
5.423491809828206,-1.099
5.425489412704754,-1.101
5.427487015581302,-1.101
5.42948461845785,-1.105
5.431482221334398,-1.107
5.433479824210946,-1.103
5.435477427087495,-1.103
5.437475029964043,-1.104
5.439472632840591,-1.106
5.441470235717139,-1.107
5.443467838593687,-1.102
5.445465441470235,-1.097
5.447463044346783,-1.101
5.449460647223331,-1.104
5.451458250099879,-1.102
5.453455852976428,-1.101
5.455453455852976,-1.1
5.457451058729524,-1.099
5.459448661606072,-1.095
5.46144626448262,-1.096
5.463443867359168,-1.097
5.465441470235716,-1.097
5.467439073112264,-1.099
5.4694366759888124,-1.101
5.471434278865361,-1.097
5.473431881741909,-1.093
5.4754294846184575,-1.09
5.4774270874950055,-1.089
5.4794246903715536,-1.089
5.481422293248102,-1.091
5.48341989612465,-1.092
5.485417499001198,-1.089
5.487415101877746,-1.086
5.489412704754295,-1.087
5.491410307630843,-1.084
5.493407910507391,-1.089
5.495405513383939,-1.089
5.497403116260487,-1.089
5.499400719137035,-1.097
5.501398322013583,-1.095
5.503395924890131,-1.102
5.505393527766679,-1.1
5.507391130643228,-1.095
5.509388733519776,-1.097
5.511386336396324,-1.096
5.513383939272872,-1.099
5.51538154214942,-1.099
5.517379145025968,-1.099
5.519376747902516,-1.1
5.521374350779064,-1.097
5.523371953655612,-1.093
5.525369556532161,-1.094
5.527367159408709,-1.094
5.529364762285257,-1.093
5.531362365161805,-1.089
5.533359968038353,-1.088
5.535357570914901,-1.088
5.5373551737914495,-1.084
5.5393527766679975,-1.083
5.541350379544546,-1.081
5.5433479824210945,-1.077
5.5453455852976425,-1.077
5.547343188174191,-1.081
5.549340791050739,-1.081
5.551338393927287,-1.081
5.553335996803835,-1.079
5.555333599680383,-1.081
5.557331202556931,-1.085
5.559328805433479,-1.084
5.561326408310028,-1.085
5.563324011186576,-1.083
5.565321614063124,-1.079
5.567319216939672,-1.077
5.56931681981622,-1.071
5.571314422692768,-1.07
5.573312025569316,-1.073
5.575309628445864,-1.075
5.577307231322412,-1.075
5.579304834198961,-1.075
5.581302437075509,-1.077
5.583300039952057,-1.082
5.585297642828605,-1.083
5.587295245705153,-1.079
5.589292848581701,-1.081
5.591290451458249,-1.082
5.593288054334797,-1.079
5.595285657211345,-1.078
5.597283260087894,-1.075
5.599280862964442,-1.075
5.60127846584099,-1.077
5.6032760687175385,-1.073
5.6052736715940865,-1.071
5.607271274470635,-1.071
5.609268877347183,-1.067
5.611266480223731,-1.063
5.613264083100279,-1.067
5.615261685976828,-1.068
5.617259288853376,-1.063
5.619256891729924,-1.063
5.621254494606472,-1.062
5.62325209748302,-1.062
5.625249700359568,-1.058
5.627247303236116,-1.056
5.629244906112664,-1.057
5.631242508989212,-1.056
5.633240111865761,-1.054
5.635237714742309,-1.054
5.637235317618857,-1.056
5.639232920495405,-1.055
5.641230523371953,-1.05
5.643228126248501,-1.046
5.645225729125049,-1.043
5.647223332001597,-1.038
5.649220934878145,-1.035
5.651218537754694,-1.036
5.653216140631242,-1.034
5.65521374350779,-1.034
5.657211346384338,-1.037
5.659208949260886,-1.032
5.661206552137434,-1.022
5.663204155013982,-1.016
5.6652017578905305,-1.02
5.6671993607670785,-1.024
5.6691969636436275,-1.016
5.6711945665201755,-1.014
5.6731921693967235,-1.016
5.675189772273272,-1.016
5.67718737514982,-1.014
5.679184978026368,-1.008
5.681182580902916,-1.006
5.683180183779464,-1.005
5.685177786656012,-1.004
5.687175389532561,-1.004
5.689172992409109,-1.0
5.691170595285657,-0.994
5.693168198162205,-0.989
5.695165801038753,-0.989
5.697163403915301,-0.985
5.699161006791849,-0.979
5.701158609668397,-0.976
5.703156212544945,-0.981
5.705153815421494,-0.984
5.707151418298042,-0.979
5.70914902117459,-0.975
5.711146624051138,-0.97
5.713144226927686,-0.966
5.715141829804234,-0.961
5.717139432680782,-0.952
5.71913703555733,-0.949
5.721134638433878,-0.948
5.723132241310427,-0.953
5.725129844186975,-0.951
5.727127447063523,-0.943
5.729125049940071,-0.943
5.7311226528166195,-0.944
5.7331202556931675,-0.942
5.735117858569716,-0.94
5.737115461446264,-0.939
5.739113064322812,-0.935
5.741110667199361,-0.927
5.743108270075909,-0.927
5.745105872952457,-0.925
5.747103475829005,-0.916
5.749101078705553,-0.913
5.751098681582101,-0.91
5.753096284458649,-0.905
5.755093887335197,-0.905
5.757091490211745,-0.905
5.759089093088294,-0.904
5.761086695964842,-0.905
5.76308429884139,-0.905
5.765081901717938,-0.898
5.767079504594486,-0.896
5.769077107471034,-0.895
5.771074710347582,-0.891
5.77307231322413,-0.889
5.775069916100678,-0.891
5.777067518977227,-0.894
5.779065121853775,-0.896
5.781062724730323,-0.892
5.783060327606871,-0.895
5.785057930483419,-0.904
5.787055533359967,-0.9
5.789053136236515,-0.899
5.7910507391130635,-0.904
5.7930483419896115,-0.907
5.79504594486616,-0.909
5.7970435477427085,-0.912
5.7990411506192565,-0.918
5.801038753495805,-0.918
5.803036356372353,-0.917
5.805033959248901,-0.919
5.807031562125449,-0.926
5.809029165001997,-0.936
5.811026767878545,-0.94
5.813024370755094,-0.941
5.815021973631642,-0.943
5.81701957650819,-0.944
5.819017179384738,-0.948
5.821014782261286,-0.95
5.823012385137834,-0.957
5.825009988014382,-0.965
5.82700759089093,-0.966
5.829005193767478,-0.966
5.831002796644027,-0.969
5.833000399520575,-0.971
5.834998002397123,-0.975
5.836995605273671,-0.976
5.838993208150219,-0.979
5.840990811026767,-0.989
5.842988413903315,-0.994
5.844986016779863,-0.994
5.846983619656411,-1.0
5.84898122253296,-1.002
5.850978825409508,-1.003
5.852976428286056,-1.013
5.854974031162604,-1.016
5.856971634039152,-1.015
5.8589692369157005,-1.023
5.8609668397922485,-1.026
5.862964442668797,-1.027
5.864962045545345,-1.028
5.8669596484218935,-1.028
5.868957251298442,-1.029
5.87095485417499,-1.034
5.872952457051538,-1.036
5.874950059928086,-1.034
5.876947662804634,-1.032
5.878945265681182,-1.03
5.88094286855773,-1.038
5.882940471434278,-1.043
5.884938074310827,-1.042
5.886935677187375,-1.043
5.888933280063923,-1.04
5.890930882940471,-1.04
5.892928485817019,-1.042
5.894926088693567,-1.044
5.896923691570115,-1.046
5.898921294446663,-1.045
5.900918897323211,-1.05
5.90291650019976,-1.052
5.904914103076308,-1.046
5.906911705952856,-1.046
5.908909308829404,-1.048
5.910906911705952,-1.051
5.9129045145825,-1.052
5.914902117459048,-1.052
5.916899720335596,-1.055
5.9188973232121445,-1.053
5.920894926088693,-1.05
5.922892528965241,-1.051
5.9248901318417895,-1.056
5.9268877347183375,-1.058
5.928885337594886,-1.056
5.930882940471434,-1.06
5.932880543347982,-1.062
5.93487814622453,-1.061
5.936875749101078,-1.061
5.938873351977627,-1.062
5.940870954854175,-1.063
5.942868557730723,-1.064
5.944866160607271,-1.062
5.946863763483819,-1.062
5.948861366360367,-1.064
5.950858969236915,-1.058
5.952856572113463,-1.058
5.954854174990011,-1.061
5.95685177786656,-1.06
5.958849380743108,-1.06
5.960846983619656,-1.057
5.962844586496204,-1.062
5.964842189372752,-1.063
5.9668397922493,-1.062
5.968837395125848,-1.058
5.970834998002396,-1.054
5.972832600878944,-1.056
5.974830203755493,-1.056
5.976827806632041,-1.056
5.978825409508589,-1.06
5.980823012385137,-1.062
5.982820615261685,-1.066
5.9848182181382334,-1.065
5.9868158210147815,-1.062
5.9888134238913295,-1.062
5.990811026767878,-1.063
5.9928086296444265,-1.06
5.9948062325209746,-1.06
5.996803835397523,-1.058
5.998801438274071,-1.057
6.000799041150619,-1.056
6.002796644027167,-1.056
6.004794246903715,-1.058
6.006791849780263,-1.055
6.008789452656811,-1.054
6.01078705553336,-1.06
6.012784658409908,-1.06
6.014782261286456,-1.06
6.016779864163004,-1.063
6.018777467039552,-1.062
6.0207750699161,-1.063
6.022772672792648,-1.069
6.024770275669196,-1.069
6.026767878545744,-1.07
6.028765481422293,-1.067
6.030763084298841,-1.065
6.032760687175389,-1.066
6.034758290051937,-1.062
6.036755892928485,-1.065
6.038753495805033,-1.069
6.040751098681581,-1.064
6.042748701558129,-1.06
6.044746304434677,-1.067
6.046743907311226,-1.067
6.048741510187774,-1.065
6.050739113064322,-1.067
6.0527367159408705,-1.065
6.0547343188174185,-1.067
6.056731921693967,-1.067
6.058729524570515,-1.067
6.060727127447063,-1.066
6.062724730323611,-1.067
6.06472233320016,-1.072
6.066719936076708,-1.072
6.068717538953256,-1.075
6.070715141829804,-1.078
6.072712744706352,-1.077
6.0747103475829,-1.074
6.076707950459448,-1.078
6.078705553335996,-1.081
6.080703156212544,-1.079
6.082700759089093,-1.077
6.084698361965641,-1.07
6.086695964842189,-1.071
6.088693567718737,-1.073
6.090691170595285,-1.075
6.092688773471833,-1.079
6.094686376348381,-1.081
6.096683979224929,-1.081
6.098681582101477,-1.077
6.100679184978026,-1.076
6.102676787854574,-1.08
6.104674390731122,-1.078
6.10667199360767,-1.079
6.108669596484218,-1.077
6.110667199360766,-1.079
6.1126648022373145,-1.081
6.1146624051138625,-1.077
6.1166600079904105,-1.078
6.1186576108669595,-1.081
6.1206552137435075,-1.079
6.122652816620056,-1.075
6.124650419496604,-1.075
6.126648022373152,-1.082
6.1286456252497,-1.088
6.130643228126248,-1.085
6.132640831002796,-1.083
6.134638433879344,-1.088
6.136636036755892,-1.087
6.138633639632441,-1.087
6.140631242508989,-1.088
6.142628845385537,-1.087
6.144626448262085,-1.09
6.146624051138633,-1.093
6.148621654015181,-1.093
6.150619256891729,-1.095
6.152616859768277,-1.091
6.154614462644825,-1.088
6.156612065521374,-1.093
6.158609668397922,-1.092
6.16060727127447,-1.089
6.162604874151018,-1.094
6.164602477027566,-1.091
6.166600079904114,-1.087
6.168597682780662,-1.085
6.17059528565721,-1.085
6.172592888533758,-1.087
6.174590491410307,-1.087
6.176588094286855,-1.089
6.1785856971634034,-1.091
6.1805833000399515,-1.092
6.1825809029164995,-1.092
6.184578505793048,-1.091
6.186576108669596,-1.095
6.188573711546144,-1.099
6.190571314422692,-1.101
6.192568917299241,-1.101
6.194566520175789,-1.105
6.196564123052337,-1.106
6.198561725928885,-1.105
6.200559328805433,-1.107
6.202556931681981,-1.109
6.204554534558529,-1.109
6.206552137435077,-1.103
6.208549740311625,-1.107
6.210547343188174,-1.113
6.212544946064722,-1.113
6.21454254894127,-1.113
6.216540151817818,-1.109
6.218537754694366,-1.111
6.220535357570914,-1.112
6.222532960447462,-1.114
6.22453056332401,-1.115
6.226528166200558,-1.115
6.228525769077107,-1.111
6.230523371953655,-1.111
6.232520974830203,-1.111
6.234518577706751,-1.109
6.236516180583299,-1.111
6.238513783459847,-1.111
6.2405113863363955,-1.113
6.2425089892129435,-1.115
6.2445065920894915,-1.115
6.2465041949660405,-1.115
6.2485017978425885,-1.111
6.250499400719137,-1.111
6.252497003595685,-1.116
6.254494606472233,-1.117
6.256492209348781,-1.115
6.258489812225329,-1.115
6.260487415101877,-1.114
6.262485017978425,-1.119
6.264482620854974,-1.123
6.266480223731522,-1.125
6.26847782660807,-1.125
6.270475429484618,-1.119
6.272473032361166,-1.113
6.274470635237714,-1.111
6.276468238114262,-1.114
6.27846584099081,-1.115
6.280463443867358,-1.122
6.282461046743907,-1.124
6.284458649620455,-1.12
6.286456252497003,-1.115
6.288453855373551,-1.116
6.290451458250099,-1.115
6.292449061126647,-1.111
6.294446664003195,-1.113
6.296444266879743,-1.116
6.298441869756291,-1.122
6.30043947263284,-1.123
6.302437075509388,-1.121
6.304434678385936,-1.12
6.3064322812624845,-1.117
6.3084298841390325,-1.121
6.3104274870155805,-1.121
6.312425089892129,-1.116
6.314422692768677,-1.118
6.316420295645225,-1.121
6.318417898521774,-1.117
6.320415501398322,-1.115
6.32241310427487,-1.116
6.324410707151418,-1.12
6.326408310027966,-1.121
6.328405912904514,-1.119
6.330403515781062,-1.12
6.33240111865761,-1.119
6.334398721534158,-1.118
6.336396324410707,-1.121
6.338393927287255,-1.119
6.340391530163803,-1.114
6.342389133040351,-1.113
6.344386735916899,-1.115
6.346384338793447,-1.121
6.348381941669995,-1.124
6.350379544546543,-1.122
6.352377147423091,-1.121
6.35437475029964,-1.121
6.356372353176188,-1.121
6.358369956052736,-1.125
6.360367558929284,-1.124
6.362365161805832,-1.121
6.36436276468238,-1.125
6.366360367558928,-1.128
6.3683579704354765,-1.123
6.3703555733120245,-1.118
6.372353176188573,-1.117
6.3743507790651215,-1.12
6.3763483819416695,-1.129
6.378345984818218,-1.13
6.380343587694766,-1.123
6.382341190571314,-1.122
6.384338793447862,-1.119
6.38633639632441,-1.119
6.388333999200958,-1.121
6.390331602077507,-1.123
6.392329204954055,-1.127
6.394326807830603,-1.125
6.396324410707151,-1.123
6.398322013583699,-1.123
6.400319616460247,-1.119
6.402317219336795,-1.113
6.404314822213343,-1.111
6.406312425089891,-1.113
6.40831002796644,-1.113
6.410307630842988,-1.118
6.412305233719536,-1.121
6.414302836596084,-1.12
6.416300439472632,-1.122
6.41829804234918,-1.117
6.420295645225728,-1.114
6.422293248102276,-1.118
6.424290850978824,-1.12
6.426288453855373,-1.123
6.428286056731921,-1.123
6.430283659608469,-1.121
6.432281262485017,-1.121
6.4342788653615655,-1.121
6.4362764682381135,-1.119
6.4382740711146615,-1.117
6.44027167399121,-1.119
6.442269276867758,-1.115
6.444266879744307,-1.116
6.446264482620855,-1.119
6.448262085497403,-1.119
6.450259688373951,-1.117
6.452257291250499,-1.113
6.454254894127047,-1.115
6.456252497003595,-1.118
6.458250099880143,-1.12
6.460247702756691,-1.119
6.46224530563324,-1.116
6.464242908509788,-1.113
6.466240511386336,-1.118
6.468238114262884,-1.117
6.470235717139432,-1.115
6.47223332001598,-1.116
6.474230922892528,-1.119
6.476228525769076,-1.124
6.478226128645624,-1.118
6.480223731522173,-1.115
6.482221334398721,-1.116
6.484218937275269,-1.117
6.486216540151817,-1.117
6.488214143028365,-1.117
6.490211745904913,-1.117
6.492209348781461,-1.115
6.494206951658009,-1.117
6.4962045545345575,-1.115
6.498202157411106,-1.114
6.5001997602876544,-1.117
6.5021973631642025,-1.117
6.5041949660407505,-1.12
6.506192568917299,-1.125
6.508190171793847,-1.123
6.510187774670395,-1.121
6.512185377546943,-1.12
6.514182980423491,-1.121
6.51618058330004,-1.119
6.518178186176588,-1.116
6.520175789053136,-1.117
6.522173391929684,-1.114
6.524170994806232,-1.117
6.52616859768278,-1.119
6.528166200559328,-1.117
6.530163803435876,-1.115
6.532161406312424,-1.113
6.534159009188973,-1.117
6.536156612065521,-1.113
6.538154214942069,-1.117
6.540151817818617,-1.125
6.542149420695165,-1.123
6.544147023571713,-1.123
6.546144626448261,-1.121
6.548142229324809,-1.117
6.550139832201357,-1.115
6.552137435077906,-1.109
6.554135037954454,-1.109
6.556132640831002,-1.107
6.55813024370755,-1.103
6.560127846584098,-1.104
6.5621254494606465,-1.111
6.5641230523371945,-1.109
6.5661206552137426,-1.101
6.568118258090291,-1.103
6.5701158609668395,-1.101
6.572113463843388,-1.099
6.574111066719936,-1.101
6.576108669596484,-1.103
6.578106272473032,-1.103
6.58010387534958,-1.095
6.582101478226128,-1.092
6.584099081102676,-1.089
6.586096683979224,-1.09
6.588094286855773,-1.094
6.590091889732321,-1.087
6.592089492608869,-1.085
6.594087095485417,-1.085
6.596084698361965,-1.085
6.598082301238513,-1.081
6.600079904115061,-1.074
6.602077506991609,-1.067
6.604075109868157,-1.064
6.606072712744706,-1.063
6.608070315621254,-1.061
6.610067918497802,-1.06
6.61206552137435,-1.063
6.614063124250898,-1.065
6.616060727127446,-1.062
6.618058330003994,-1.061
6.620055932880542,-1.06
6.62205353575709,-1.06
6.624051138633639,-1.057
6.626048741510187,-1.055
6.6280463443867355,-1.056
6.6300439472632835,-1.054
6.6320415501398315,-1.05
6.63403915301638,-1.048
6.636036755892928,-1.038
6.638034358769476,-1.026
6.640031961646024,-1.018
6.642029564522573,-1.007
6.644027167399121,-0.998
6.646024770275669,-0.993
6.648022373152217,-0.989
6.650019976028765,-0.991
6.652017578905313,-0.992
6.654015181781861,-0.987
6.656012784658409,-0.984
6.658010387534957,-0.985
6.660007990411506,-0.99
6.662005593288054,-0.989
6.664003196164602,-0.99
6.66600079904115,-0.993
6.667998401917698,-0.996
6.669996004794246,-1.002
6.671993607670794,-1.004
6.673991210547342,-1.007
6.67598881342389,-1.012
6.677986416300439,-1.013
6.679984019176987,-1.012
6.681981622053535,-1.012
6.683979224930083,-1.014
6.685976827806631,-1.02
6.687974430683179,-1.02
6.6899720335597275,-1.024
6.6919696364362755,-1.032
6.693967239312824,-1.036
6.6959648421893725,-1.044
6.6979624450659205,-1.054
6.699960047942469,-1.055
6.701957650819017,-1.055
6.703955253695565,-1.059
6.705952856572113,-1.065
6.707950459448661,-1.069
6.709948062325209,-1.077
6.711945665201757,-1.089
6.713943268078306,-1.091
6.715940870954854,-1.093
6.717938473831402,-1.091
6.71993607670795,-1.087
6.721933679584498,-1.083
6.723931282461046,-1.083
6.725928885337594,-1.086
6.727926488214142,-1.088
6.72992409109069,-1.085
6.731921693967239,-1.084
6.733919296843787,-1.084
6.735916899720335,-1.082
6.737914502596883,-1.083
6.739912105473431,-1.087
6.741909708349979,-1.089
6.743907311226527,-1.093
6.745904914103075,-1.095
6.747902516979623,-1.094
6.749900119856172,-1.101
6.75189772273272,-1.103
6.753895325609268,-1.103
6.7558929284858165,-1.106
6.7578905313623645,-1.107
6.7598881342389125,-1.103
6.761885737115461,-1.099
6.763883339992009,-1.095
6.765880942868557,-1.093
6.767878545745106,-1.095
6.769876148621654,-1.099
6.771873751498202,-1.105
6.77387135437475,-1.104
6.775868957251298,-1.104
6.777866560127846,-1.111
6.779864163004394,-1.116
6.781861765880942,-1.119
6.78385936875749,-1.119
6.785856971634039,-1.121
6.787854574510587,-1.125
6.789852177387135,-1.131
6.791849780263683,-1.128
6.793847383140231,-1.129
6.795844986016779,-1.131
6.797842588893327,-1.131
6.799840191769875,-1.129
6.801837794646423,-1.127
6.803835397522972,-1.127
6.80583300039952,-1.125
6.807830603276068,-1.127
6.809828206152616,-1.129
6.811825809029164,-1.126
6.813823411905712,-1.125
6.81582101478226,-1.127
6.8178186176588085,-1.129
6.8198162205353565,-1.127
6.8218138234119055,-1.126
6.8238114262884535,-1.13
6.8258090291650015,-1.133
6.82780663204155,-1.131
6.829804234918098,-1.13
6.831801837794646,-1.127
6.833799440671194,-1.127
6.835797043547742,-1.127
6.83779464642429,-1.124
6.839792249300839,-1.123
6.841789852177387,-1.12
6.843787455053935,-1.123
6.845785057930483,-1.126
6.847782660807031,-1.126
6.849780263683579,-1.123
6.851777866560127,-1.128
6.853775469436675,-1.131
6.855773072313223,-1.125
6.857770675189772,-1.128
6.85976827806632,-1.125
6.861765880942868,-1.125
6.863763483819416,-1.129
6.865761086695964,-1.139
6.867758689572512,-1.15
6.86975629244906,-1.159
6.871753895325608,-1.175
6.873751498202156,-1.187
6.875749101078705,-1.196
6.877746703955253,-1.21
6.879744306831801,-1.213
6.881741909708349,-1.21
6.8837395125848975,-1.198
6.8857371154614455,-1.185
6.8877347183379936,-1.167
6.889732321214542,-1.149
6.89172992409109,-1.137
6.893727526967639,-1.129
6.895725129844187,-1.127
6.897722732720735,-1.125
6.899720335597283,-1.117
6.901717938473831,-1.109
6.903715541350379,-1.103
6.905713144226927,-1.099
6.907710747103475,-1.1
6.909708349980023,-1.105
6.911705952856572,-1.101
6.91370355573312,-1.077
6.915701158609668,-1.02
6.917698761486216,-0.954
6.919696364362764,-0.893
6.921693967239312,-0.847
6.92369157011586,-0.829
6.925689172992408,-0.806
6.927686775868956,-0.789
6.929684378745505,-0.763
6.931681981622053,-0.728
6.933679584498601,-0.693
6.935677187375149,-0.662
6.937674790251697,-0.654
6.939672393128245,-0.643
6.941669996004793,-0.618
6.943667598881341,-0.572
6.9456652017578895,-0.532
6.947662804634438,-0.476
6.9496604075109865,-0.406
6.9516580103875345,-0.358
6.9536556132640825,-0.31
6.955653216140631,-0.252
6.957650819017179,-0.19
6.959648421893727,-0.144
6.961646024770275,-0.109
6.963643627646823,-0.083
6.965641230523371,-0.059
6.96763883339992,-0.029
6.969636436276468,-0.021
6.971634039153016,-0.044
6.973631642029564,-0.097
6.975629244906112,-0.134
6.97762684778266,-0.168
6.979624450659208,-0.218
6.981622053535756,-0.287
6.983619656412304,-0.361
6.985617259288853,-0.398
6.987614862165401,-0.424
6.989612465041949,-0.442
6.991610067918497,-0.462
6.993607670795045,-0.497
6.995605273671593,-0.542
6.997602876548141,-0.586
6.999600479424689,-0.621
7.001598082301237,-0.661
7.003595685177786,-0.71
7.005593288054334,-0.756
7.007590890930882,-0.792
7.00958849380743,-0.826
7.0115860966839785,-0.848
7.0135836995605265,-0.856
7.015581302437075,-0.867
7.017578905313623,-0.883
7.019576508190171,-0.905
7.02157411106672,-0.926
7.023571713943268,-0.946
7.025569316819816,-0.964
7.027566919696364,-0.973
7.029564522572912,-0.983
7.03156212544946,-0.995
7.033559728326008,-1.004
7.035557331202556,-1.014
7.037554934079104,-1.031
7.039552536955653,-1.041
7.041550139832201,-1.045
7.043547742708749,-1.048
7.045545345585297,-1.048
7.047542948461845,-1.054
7.049540551338393,-1.056
7.051538154214941,-1.06
7.053535757091489,-1.072
7.055533359968037,-1.073
7.057530962844586,-1.071
7.059528565721134,-1.072
7.061526168597682,-1.078
7.06352377147423,-1.081
7.065521374350778,-1.085
7.067518977227326,-1.09
7.069516580103874,-1.087
7.0715141829804224,-1.091
7.0735117858569705,-1.1
7.075509388733519,-1.099
7.0775069916100675,-1.093
7.0795045944866155,-1.091
7.0815021973631636,-1.093
7.083499800239712,-1.089
7.08549740311626,-1.091
7.087495005992808,-1.095
7.089492608869356,-1.091
7.091490211745904,-1.093
7.093487814622453,-1.101
7.095485417499001,-1.104
7.097483020375549,-1.105
7.099480623252097,-1.106
7.101478226128645,-1.109
7.103475829005193,-1.107
7.105473431881741,-1.105
7.107471034758289,-1.103
7.109468637634837,-1.101
7.111466240511386,-1.1
7.113463843387934,-1.103
7.115461446264482,-1.104
7.11745904914103,-1.105
7.119456652017578,-1.11
7.121454254894126,-1.105
7.123451857770674,-1.097
7.125449460647222,-1.096
7.12744706352377,-1.099
7.129444666400319,-1.097
7.131442269276867,-1.095
7.133439872153415,-1.091
7.135437475029963,-1.093
7.137435077906511,-1.093
7.1394326807830595,-1.093
7.1414302836596075,-1.101
7.143427886536156,-1.105
7.145425489412704,-1.105
7.1474230922892525,-1.107
7.149420695165801,-1.107
7.151418298042349,-1.104
7.153415900918897,-1.099
7.155413503795445,-1.102
7.157411106671993,-1.106
7.159408709548541,-1.107
7.161406312425089,-1.105
7.163403915301637,-1.101
7.165401518178186,-1.1
7.167399121054734,-1.1
7.169396723931282,-1.099
7.17139432680783,-1.097
7.173391929684378,-1.095
7.175389532560926,-1.093
7.177387135437474,-1.093
7.179384738314022,-1.09
7.18138234119057,-1.085
7.183379944067119,-1.085
7.185377546943667,-1.09
7.187375149820215,-1.093
7.189372752696763,-1.095
7.191370355573311,-1.094
7.193367958449859,-1.089
7.195365561326407,-1.09
7.197363164202955,-1.09
7.1993607670795035,-1.085
7.201358369956052,-1.089
7.2033559728326,-1.091
7.2053535757091485,-1.089
7.2073511785856965,-1.093
7.209348781462245,-1.092
7.211346384338793,-1.085
7.213343987215341,-1.087
7.215341590091889,-1.089
7.217339192968437,-1.087
7.219336795844986,-1.085
7.221334398721534,-1.079
7.223332001598082,-1.08
7.22532960447463,-1.081
7.227327207351178,-1.077
7.229324810227726,-1.083
7.231322413104274,-1.081
7.233320015980822,-1.078
7.23531761885737,-1.076
7.237315221733919,-1.077
7.239312824610467,-1.077
7.241310427487015,-1.079
7.243308030363563,-1.081
7.245305633240111,-1.078
7.247303236116659,-1.077
7.249300838993207,-1.079
7.251298441869755,-1.082
7.253296044746303,-1.08
7.255293647622852,-1.077
7.2572912504994,-1.077
7.259288853375948,-1.075
7.261286456252496,-1.069
7.263284059129044,-1.067
7.2652816620055924,-1.075
7.2672792648821405,-1.073
7.2692768677586885,-1.067
7.271274470635237,-1.065
7.2732720735117855,-1.065
7.2752696763883336,-1.067
7.277267279264882,-1.065
7.27926488214143,-1.065
7.281262485017978,-1.07
7.283260087894526,-1.071
7.285257690771074,-1.069
7.287255293647622,-1.067
7.28925289652417,-1.069
7.291250499400719,-1.063
7.293248102277267,-1.062
7.295245705153815,-1.058
7.297243308030363,-1.052
7.299240910906911,-1.056
7.301238513783459,-1.056
7.303236116660007,-1.055
7.305233719536555,-1.058
7.307231322413103,-1.069
7.309228925289652,-1.067
7.3112265281662,-1.056
7.313224131042748,-1.048
7.315221733919296,-1.044
7.317219336795844,-1.048
7.319216939672392,-1.048
7.32121454254894,-1.048
7.323212145425488,-1.044
7.325209748302036,-1.044
7.327207351178585,-1.05
7.329204954055133,-1.048
7.331202556931681,-1.049
7.3332001598082295,-1.046
7.3351977626847775,-1.046
7.337195365561326,-1.049
7.339192968437874,-1.05
7.341190571314422,-1.052
7.34318817419097,-1.044
7.345185777067519,-1.034
7.347183379944067,-1.036
7.349180982820615,-1.042
7.351178585697163,-1.042
7.353176188573711,-1.036
7.355173791450259,-1.03
7.357171394326807,-1.024
7.359168997203355,-1.02
7.361166600079903,-1.017
7.363164202956452,-1.013
7.365161805833,-1.012
7.367159408709548,-1.01
7.369157011586096,-1.006
7.371154614462644,-1.006
7.373152217339192,-1.002
7.37514982021574,-0.999
7.377147423092288,-1.003
7.379145025968836,-1.0
7.381142628845385,-0.994
7.383140231721933,-0.995
7.385137834598481,-0.993
7.387135437475029,-0.986
7.389133040351577,-0.985
7.391130643228125,-0.983
7.3931282461046735,-0.979
7.3951258489812215,-0.979
7.3971234518577695,-0.977
7.3991210547343185,-0.974
7.4011186576108665,-0.97
7.403116260487415,-0.97
7.405113863363963,-0.966
7.407111466240511,-0.958
7.409109069117059,-0.955
7.411106671993607,-0.951
7.413104274870155,-0.948
7.415101877746703,-0.95
7.417099480623252,-0.953
7.4190970834998,-0.949
7.421094686376348,-0.94
7.423092289252896,-0.941
7.425089892129444,-0.944
7.427087495005992,-0.938
7.42908509788254,-0.929
7.431082700759088,-0.922
7.433080303635636,-0.919
7.435077906512185,-0.919
7.437075509388733,-0.917
7.439073112265281,-0.911
7.441070715141829,-0.906
7.443068318018377,-0.903
7.445065920894925,-0.903
7.447063523771473,-0.901
7.449061126648021,-0.897
7.451058729524569,-0.895
7.453056332401118,-0.893
7.455053935277666,-0.889
7.457051538154214,-0.889
7.459049141030762,-0.886
7.4610467439073105,-0.88
7.4630443467838585,-0.88
7.465041949660407,-0.875
7.467039552536955,-0.875
7.469037155413503,-0.879
7.471034758290052,-0.88
7.4730323611666,-0.879
7.475029964043148,-0.869
7.477027566919696,-0.871
7.479025169796244,-0.873
7.481022772672792,-0.871
7.48302037554934,-0.873
7.485017978425888,-0.869
7.487015581302436,-0.865
7.489013184178985,-0.864
7.491010787055533,-0.865
7.493008389932081,-0.864
7.495005992808629,-0.866
7.497003595685177,-0.874
7.499001198561725,-0.869
7.500998801438273,-0.864
7.502996404314821,-0.867
7.504994007191369,-0.87
7.506991610067918,-0.873
7.508989212944466,-0.877
7.510986815821014,-0.879
7.512984418697562,-0.881
7.51498202157411,-0.884
7.516979624450658,-0.886
7.518977227327206,-0.889
7.5209748302037545,-0.886
7.5229724330803025,-0.886
7.524970035956851,-0.892
7.5269676388333995,-0.897
7.5289652417099475,-0.903
7.530962844586496,-0.906
7.532960447463044,-0.912
7.534958050339592,-0.914
7.53695565321614,-0.92
7.538953256092688,-0.927
7.540950858969236,-0.927
7.542948461845785,-0.938
7.544946064722333,-0.947
7.546943667598881,-0.949
7.548941270475429,-0.952
7.550938873351977,-0.955
7.552936476228525,-0.961
7.554934079105073,-0.963
7.556931681981621,-0.963
7.558929284858169,-0.964
7.560926887734718,-0.969
7.562924490611266,-0.979
7.564922093487814,-0.98
7.566919696364362,-0.977
7.56891729924091,-0.978
7.570914902117458,-0.98
7.572912504994006,-0.98
7.574910107870554,-0.985
7.576907710747102,-0.99
7.578905313623651,-0.991
7.580902916500199,-0.993
7.582900519376747,-0.996
7.584898122253295,-0.999
7.5868957251298434,-1.002
7.5888933280063915,-1.002
7.5908909308829395,-1.001
7.592888533759488,-1.003
7.594886136636036,-1.004
7.5968837395125846,-1.01
7.598881342389133,-1.011
7.600878945265681,-1.014
7.602876548142229,-1.018
7.604874151018777,-1.014
7.606871753895325,-1.016
7.608869356771873,-1.024
7.610866959648421,-1.025
7.612864562524969,-1.022
7.614862165401518,-1.022
7.616859768278066,-1.022
7.618857371154614,-1.024
7.620854974031162,-1.028
7.62285257690771,-1.026
7.624850179784258,-1.027
7.626847782660806,-1.035
7.628845385537354,-1.039
7.630842988413902,-1.036
7.632840591290451,-1.032
7.634838194166999,-1.038
7.636835797043547,-1.038
7.638833399920095,-1.028
7.640831002796643,-1.026
7.642828605673191,-1.025
7.644826208549739,-1.028
7.646823811426287,-1.026
7.6488214143028355,-1.021
7.650819017179384,-1.022
7.652816620055932,-1.026
7.6548142229324805,-1.029
7.6568118258090285,-1.03
7.658809428685577,-1.034
7.660807031562125,-1.036
7.662804634438673,-1.035
7.664802237315221,-1.039
7.666799840191769,-1.03
7.668797443068318,-1.025
7.670795045944866,-1.025
7.672792648821414,-1.026
7.674790251697962,-1.028
7.67678785457451,-1.022
7.678785457451058,-1.024
7.680783060327606,-1.023
7.682780663204154,-1.022
7.684778266080702,-1.024
7.686775868957251,-1.022
7.688773471833799,-1.023
7.690771074710347,-1.02
7.692768677586895,-1.017
7.694766280463443,-1.02
7.696763883339991,-1.021
7.698761486216539,-1.018
7.700759089093087,-1.022
7.702756691969635,-1.03
7.704754294846184,-1.028
7.706751897722732,-1.024
7.70874950059928,-1.026
7.710747103475828,-1.029
7.712744706352376,-1.025
7.7147423092289245,-1.021
7.7167399121054725,-1.022
7.7187375149820205,-1.022
7.720735117858569,-1.025
7.7227327207351175,-1.024
7.724730323611666,-1.024
7.726727926488214,-1.024
7.728725529364762,-1.02
7.73072313224131,-1.014
7.732720735117858,-1.01
7.734718337994406,-1.014
7.736715940870954,-1.014
7.738713543747502,-1.009
7.740711146624051,-1.012
7.742708749500599,-1.012
7.744706352377147,-1.015
7.746703955253695,-1.03
7.748701558130243,-1.035
7.750699161006791,-1.028
7.752696763883339,-1.022
7.754694366759887,-1.026
7.756691969636435,-1.026
7.758689572512984,-1.025
7.760687175389532,-1.028
7.76268477826608,-1.031
7.764682381142628,-1.035
7.766679984019176,-1.032
7.768677586895724,-1.026
7.770675189772272,-1.024
7.77267279264882,-1.029
7.774670395525368,-1.032
7.7766679984019165,-1.028
7.778665601278465,-1.022
7.7806632041550134,-1.023
7.7826608070315615,-1.026
7.7846584099081095,-1.02
7.786656012784658,-1.016
7.788653615661206,-1.017
7.790651218537754,-1.022
7.792648821414302,-1.025
7.79464642429085,-1.025
7.796644027167399,-1.026
7.798641630043947,-1.024
7.800639232920495,-1.02
7.802636835797043,-1.021
7.804634438673591,-1.022
7.806632041550139,-1.02
7.808629644426687,-1.022
7.810627247303235,-1.026
7.812624850179783,-1.03
7.814622453056332,-1.025
7.81662005593288,-1.025
7.818617658809428,-1.028
7.820615261685976,-1.024
7.822612864562524,-1.022
7.824610467439072,-1.026
7.82660807031562,-1.028
7.828605673192168,-1.022
7.830603276068716,-1.024
7.832600878945265,-1.026
7.834598481821813,-1.024
7.836596084698361,-1.026
7.838593687574909,-1.026
7.840591290451457,-1.027
7.8425888933280055,-1.025
7.8445864962045535,-1.024
7.8465840990811015,-1.026
7.84858170195765,-1.022
7.8505793048341985,-1.022
7.852576907710747,-1.024
7.854574510587295,-1.025
7.856572113463843,-1.027
7.858569716340391,-1.025
7.860567319216939,-1.026
7.862564922093487,-1.029
7.864562524970035,-1.032
7.866560127846583,-1.038
7.868557730723132,-1.042
7.87055533359968,-1.037
7.872552936476228,-1.031
7.874550539352776,-1.034
7.876548142229324,-1.034
7.878545745105872,-1.029
7.88054334798242,-1.03
7.882540950858968,-1.034
7.884538553735516,-1.03
7.886536156612065,-1.026
7.888533759488613,-1.022
7.890531362365161,-1.027
7.892528965241709,-1.032
7.894526568118257,-1.028
7.896524170994805,-1.028
7.898521773871353,-1.029
7.900519376747901,-1.03
7.902516979624449,-1.031
7.904514582500998,-1.03
7.906512185377546,-1.027
7.9085097882540945,-1.027
7.9105073911306425,-1.03
7.9125049940071905,-1.028
7.914502596883739,-1.03
7.916500199760287,-1.033
7.918497802636835,-1.039
7.920495405513383,-1.04
7.922493008389932,-1.036
7.92449061126648,-1.033
7.926488214143028,-1.03
7.928485817019576,-1.032
7.930483419896124,-1.034
7.932481022772672,-1.036
7.93447862564922,-1.038
7.936476228525768,-1.034
7.938473831402316,-1.034
7.940471434278865,-1.035
7.942469037155413,-1.03
7.944466640031961,-1.03
7.946464242908509,-1.036
7.948461845785057,-1.039
7.950459448661605,-1.042
7.952457051538153,-1.046
7.954454654414701,-1.048
7.956452257291249,-1.044
7.958449860167798,-1.04
7.960447463044346,-1.04
7.962445065920894,-1.04
7.964442668797442,-1.041
7.96644027167399,-1.037
7.968437874550538,-1.036
7.9704354774270865,-1.041
7.9724330803036345,-1.043
7.9744306831801826,-1.04
7.9764282860567315,-1.039
7.9784258889332795,-1.041
7.980423491809828,-1.05
7.982421094686376,-1.054
7.984418697562924,-1.046
7.986416300439472,-1.048
7.98841390331602,-1.049
7.990411506192568,-1.046
7.992409109069116,-1.047
7.994406711945665,-1.046
7.996404314822213,-1.046
7.998401917698761,-1.048
8.000399520575309,-1.05
8.002397123451857,-1.048
8.004394726328405,-1.046
8.006392329204953,-1.044
8.008389932081501,-1.047
8.01038753495805,-1.044
8.012385137834597,-1.045
8.014382740711145,-1.046
8.016380343587693,-1.048
8.018377946464241,-1.06
8.020375549340791,-1.065
8.02237315221734,-1.063
8.024370755093887,-1.062
8.026368357970435,-1.062
8.028365960846983,-1.062
8.030363563723531,-1.059
8.03236116660008,-1.054
8.034358769476627,-1.05
8.036356372353175,-1.048
8.038353975229724,-1.048
8.040351578106272,-1.05
8.04234918098282,-1.049
8.044346783859368,-1.048
8.046344386735916,-1.05
8.048341989612464,-1.05
8.050339592489012,-1.05
8.05233719536556,-1.048
8.054334798242108,-1.046
8.056332401118658,-1.044
8.058330003995206,-1.044
8.060327606871754,-1.044
8.062325209748302,-1.044
8.06432281262485,-1.044
8.066320415501398,-1.046
8.068318018377946,-1.05
8.070315621254494,-1.05
8.072313224131042,-1.048
8.07431082700759,-1.046
8.076308429884138,-1.043
8.078306032760686,-1.038
8.080303635637234,-1.039
8.082301238513782,-1.04
8.08429884139033,-1.04
8.086296444266878,-1.046
8.088294047143426,-1.047
8.090291650019974,-1.048
8.092289252896524,-1.042
8.094286855773072,-1.036
8.09628445864962,-1.034
8.098282061526168,-1.038
8.100279664402716,-1.04
8.102277267279264,-1.038
8.104274870155812,-1.042
8.10627247303236,-1.046
8.108270075908909,-1.048
8.110267678785457,-1.047
8.112265281662005,-1.046
8.114262884538553,-1.048
8.1162604874151,-1.046
8.118258090291649,-1.047
8.120255693168197,-1.046
8.122253296044745,-1.047
8.124250898921293,-1.05
8.126248501797841,-1.048
8.12824610467439,-1.045
8.130243707550939,-1.044
8.132241310427487,-1.046
8.134238913304035,-1.05
8.136236516180583,-1.049
8.138234119057131,-1.046
8.140231721933679,-1.046
8.142229324810227,-1.049
8.144226927686775,-1.05
8.146224530563323,-1.05
8.148222133439871,-1.054
8.15021973631642,-1.058
8.152217339192967,-1.057
8.154214942069515,-1.055
8.156212544946063,-1.053
8.158210147822611,-1.049
8.16020775069916,-1.048
8.162205353575708,-1.046
8.164202956452257,-1.043
8.166200559328805,-1.04
8.168198162205353,-1.037
8.170195765081901,-1.034
8.17219336795845,-1.036
8.174190970834998,-1.04
8.176188573711546,-1.042
8.178186176588094,-1.044
8.180183779464642,-1.047
8.18218138234119,-1.052
8.184178985217738,-1.052
8.186176588094286,-1.048
8.188174190970834,-1.05
8.190171793847382,-1.047
8.19216939672393,-1.046
8.194166999600478,-1.05
8.196164602477026,-1.053
8.198162205353574,-1.048
8.200159808230122,-1.046
8.202157411106672,-1.048
8.20415501398322,-1.046
8.206152616859768,-1.043
8.208150219736316,-1.046
8.210147822612864,-1.044
8.212145425489412,-1.044
8.21414302836596,-1.046
8.216140631242508,-1.046
8.218138234119056,-1.052
8.220135836995604,-1.05
8.222133439872152,-1.046
8.2241310427487,-1.044
8.226128645625248,-1.044
8.228126248501797,-1.046
8.230123851378345,-1.046
8.232121454254893,-1.047
8.23411905713144,-1.049
8.236116660007989,-1.046
8.238114262884539,-1.04
8.240111865761087,-1.04
8.242109468637635,-1.04
8.244107071514183,-1.038
8.24610467439073,-1.039
8.248102277267279,-1.039
8.250099880143827,-1.048
8.252097483020375,-1.05
8.254095085896923,-1.046
8.256092688773471,-1.046
8.258090291650019,-1.04
8.260087894526567,-1.035
8.262085497403115,-1.034
8.264083100279663,-1.032
8.266080703156211,-1.028
8.26807830603276,-1.026
8.270075908909307,-1.026
8.272073511785855,-1.02
8.274071114662405,-1.014
8.276068717538953,-1.008
8.278066320415501,-1.0
8.28006392329205,-0.999
8.282061526168597,-0.991
8.284059129045145,-0.991
8.286056731921693,-0.991
8.288054334798241,-0.986
8.29005193767479,-0.984
8.292049540551337,-0.983
8.294047143427886,-0.984
8.296044746304434,-0.986
8.298042349180982,-0.987
8.30003995205753,-0.986
8.302037554934078,-0.987
8.304035157810626,-0.986
8.306032760687174,-0.989
8.308030363563722,-0.986
8.310027966440272,-0.983
8.31202556931682,-0.983
8.314023172193368,-0.985
8.316020775069916,-0.988
8.318018377946464,-0.99
8.320015980823012,-0.988
8.32201358369956,-0.976
8.324011186576108,-0.959
8.326008789452656,-0.947
8.328006392329204,-0.943
8.330003995205752,-0.934
8.3320015980823,-0.929
8.333999200958848,-0.924
8.335996803835396,-0.915
8.337994406711944,-0.91
8.339992009588492,-0.902
8.34198961246504,-0.898
8.343987215341588,-0.905
8.345984818218138,-0.912
8.347982421094686,-0.91
8.349980023971234,-0.908
8.351977626847782,-0.912
8.35397522972433,-0.922
8.355972832600878,-0.925
8.357970435477426,-0.927
8.359968038353975,-0.931
8.361965641230523,-0.929
8.36396324410707,-0.933
8.365960846983619,-0.937
8.367958449860167,-0.941
8.369956052736715,-0.943
8.371953655613263,-0.945
8.37395125848981,-0.949
8.375948861366359,-0.948
8.377946464242907,-0.955
8.379944067119455,-0.958
8.381941669996005,-0.963
8.383939272872553,-0.97
8.3859368757491,-0.972
8.387934478625649,-0.979
8.389932081502197,-0.984
8.391929684378745,-0.986
8.393927287255293,-0.989
8.395924890131841,-0.993
8.397922493008389,-1.004
8.399920095884937,-1.008
8.401917698761485,-1.006
8.403915301638033,-1.012
8.405912904514581,-1.014
8.40791050739113,-1.012
8.409908110267677,-1.012
8.411905713144225,-1.014
8.413903316020773,-1.018
8.415900918897322,-1.016
8.417898521773871,-1.008
8.41989612465042,-1.005
8.421893727526967,-1.008
8.423891330403515,-1.004
8.425888933280063,-1.01
8.427886536156612,-1.018
8.42988413903316,-1.02
8.431881741909708,-1.026
8.433879344786256,-1.03
8.435876947662804,-1.034
8.437874550539352,-1.033
8.4398721534159,-1.035
8.441869756292448,-1.032
8.443867359168996,-1.028
8.445864962045544,-1.026
8.447862564922092,-1.026
8.44986016779864,-1.024
8.451857770675188,-1.026
8.453855373551738,-1.034
8.455852976428286,-1.034
8.457850579304834,-1.034
8.459848182181382,-1.038
8.46184578505793,-1.04
8.463843387934478,-1.044
8.465840990811026,-1.048
8.467838593687574,-1.053
8.469836196564122,-1.056
8.47183379944067,-1.056
8.473831402317218,-1.058
8.475829005193766,-1.061
8.477826608070314,-1.06
8.479824210946862,-1.057
8.48182181382341,-1.062
8.483819416699959,-1.063
8.485817019576507,-1.062
8.487814622453055,-1.062
8.489812225329604,-1.065
8.491809828206152,-1.07
8.4938074310827,-1.071
8.495805033959249,-1.069
8.497802636835797,-1.071
8.499800239712345,-1.07
8.501797842588893,-1.068
8.50379544546544,-1.069
8.505793048341989,-1.071
8.507790651218537,-1.075
8.509788254095085,-1.072
8.511785856971633,-1.068
8.513783459848181,-1.071
8.515781062724729,-1.069
8.517778665601277,-1.069
8.519776268477825,-1.068
8.521773871354373,-1.067
8.523771474230921,-1.065
8.525769077107471,-1.063
8.527766679984019,-1.062
8.529764282860567,-1.066
8.531761885737115,-1.071
8.533759488613663,-1.067
8.535757091490211,-1.062
8.53775469436676,-1.06
8.539752297243307,-1.062
8.541749900119855,-1.064
8.543747502996403,-1.067
8.545745105872951,-1.069
8.5477427087495,-1.073
8.549740311626048,-1.075
8.551737914502596,-1.077
8.553735517379144,-1.083
8.555733120255692,-1.093
8.55773072313224,-1.101
8.559728326008788,-1.115
8.561725928885338,-1.131
8.563723531761886,-1.143
8.565721134638434,-1.155
8.567718737514982,-1.159
8.56971634039153,-1.151
8.571713943268078,-1.136
8.573711546144626,-1.122
8.575709149021174,-1.109
8.577706751897722,-1.096
8.57970435477427,-1.081
8.581701957650818,-1.058
8.583699560527366,-1.056
8.585697163403914,-1.058
8.587694766280462,-1.042
8.58969236915701,-1.04
8.591689972033558,-1.033
8.593687574910106,-1.023
8.595685177786654,-1.023
8.597682780663204,-1.025
8.599680383539752,-1.02
8.6016779864163,-0.989
8.603675589292848,-0.934
8.605673192169396,-0.868
8.607670795045944,-0.806
8.609668397922492,-0.752
8.61166600079904,-0.727
8.613663603675588,-0.702
8.615661206552137,-0.67
8.617658809428685,-0.644
8.619656412305233,-0.608
8.62165401518178,-0.571
8.623651618058329,-0.539
8.625649220934877,-0.524
8.627646823811425,-0.514
8.629644426687973,-0.484
8.63164202956452,-0.429
8.63363963244107,-0.395
8.635637235317619,-0.353
8.637634838194167,-0.292
8.639632441070715,-0.254
8.641630043947263,-0.21
8.643627646823811,-0.152
8.645625249700359,-0.099
8.647622852576907,-0.06
8.649620455453455,-0.024
8.651618058330003,0.013
8.653615661206551,0.04
8.6556132640831,0.059
8.657610866959647,0.068
8.659608469836195,0.051
8.661606072712743,0.006
8.663603675589291,-0.037
8.66560127846584,-0.073
8.667598881342387,-0.123
8.669596484218937,-0.191
8.671594087095485,-0.26
8.673591689972033,-0.306
8.675589292848581,-0.357
8.67758689572513,-0.384
8.679584498601677,-0.395
8.681582101478226,-0.433
8.683579704354774,-0.461
8.685577307231322,-0.499
8.68757491010787,-0.539
8.689572512984418,-0.574
8.691570115860966,-0.626
8.693567718737514,-0.676
8.695565321614062,-0.714
8.69756292449061,-0.744
8.699560527367158,-0.764
8.701558130243706,-0.777
8.703555733120254,-0.786
8.705553335996804,-0.796
8.707550938873352,-0.816
8.7095485417499,-0.839
8.711546144626448,-0.857
8.713543747502996,-0.875
8.715541350379544,-0.892
8.717538953256092,-0.905
8.71953655613264,-0.917
8.721534159009188,-0.927
8.723531761885736,-0.939
8.725529364762284,-0.947
8.727526967638832,-0.957
8.72952457051538,-0.962
8.731522173391928,-0.963
8.733519776268476,-0.968
8.735517379145024,-0.975
8.737514982021573,-0.979
8.73951258489812,-0.982
8.74151018777467,-0.983
8.743507790651218,-0.987
8.745505393527766,-0.995
8.747502996404315,-1.002
8.749500599280863,-1.005
8.75149820215741,-1.004
8.753495805033959,-1.002
8.755493407910507,-1.0
8.757491010787055,-1.004
8.759488613663603,-1.008
8.76148621654015,-1.01
8.763483819416699,-1.008
8.765481422293247,-1.008
8.767479025169795,-1.01
8.769476628046343,-1.013
8.771474230922891,-1.02
8.773471833799439,-1.021
8.775469436675987,-1.02
8.777467039552537,-1.022
8.779464642429085,-1.025
8.781462245305633,-1.026
8.783459848182181,-1.028
8.785457451058729,-1.028
8.787455053935277,-1.029
8.789452656811825,-1.03
8.791450259688373,-1.027
8.793447862564921,-1.03
8.79544546544147,-1.032
8.797443068318017,-1.029
8.799440671194565,-1.028
8.801438274071113,-1.028
8.803435876947661,-1.023
8.80543347982421,-1.024
8.807431082700758,-1.024
8.809428685577306,-1.02
8.811426288453854,-1.023
8.813423891330403,-1.027
8.815421494206952,-1.028
8.8174190970835,-1.026
8.819416699960048,-1.026
8.821414302836596,-1.028
8.823411905713144,-1.029
8.825409508589692,-1.03
8.82740711146624,-1.031
8.829404714342788,-1.027
8.831402317219336,-1.025
8.833399920095884,-1.024
8.835397522972432,-1.024
8.83739512584898,-1.024
8.839392728725528,-1.022
8.841390331602076,-1.02
8.843387934478624,-1.019
8.845385537355172,-1.018
8.84738314023172,-1.016
8.84938074310827,-1.02
8.851378345984818,-1.02
8.853375948861366,-1.019
8.855373551737914,-1.022
8.857371154614462,-1.021
8.85936875749101,-1.02
8.861366360367558,-1.02
8.863363963244106,-1.022
8.865361566120654,-1.02
8.867359168997202,-1.02
8.86935677187375,-1.02
8.871354374750299,-1.018
8.873351977626847,-1.022
8.875349580503395,-1.02
8.877347183379943,-1.022
8.87934478625649,-1.022
8.881342389133039,-1.018
8.883339992009587,-1.012
8.885337594886137,-1.004
8.887335197762685,-1.003
8.889332800639233,-1.003
8.89133040351578,-1.004
8.893328006392329,-1.006
8.895325609268877,-1.008
8.897323212145425,-1.01
8.899320815021973,-1.012
8.901318417898521,-1.01
8.903316020775069,-1.011
8.905313623651617,-1.018
8.907311226528165,-1.014
8.909308829404713,-1.012
8.911306432281261,-1.01
8.91330403515781,-1.008
8.915301638034357,-1.01
8.917299240910905,-1.006
8.919296843787453,-1.002
8.921294446664003,-0.998
8.923292049540551,-1.002
8.9252896524171,-1.004
8.927287255293647,-1.001
8.929284858170195,-0.999
8.931282461046743,-1.0
8.933280063923291,-1.0
8.93527766679984,-0.994
8.937275269676388,-0.999
8.939272872552936,-1.002
8.941270475429484,-1.002
8.943268078306032,-1.0
8.94526568118258,-0.996
8.947263284059128,-0.998
8.949260886935676,-0.998
8.951258489812224,-0.989
8.953256092688772,-0.984
8.95525369556532,-0.991
8.95725129844187,-0.989
8.959248901318418,-0.981
8.961246504194966,-0.977
8.963244107071514,-0.976
8.965241709948062,-0.974
8.96723931282461,-0.977
8.969236915701158,-0.977
8.971234518577706,-0.976
8.973232121454254,-0.983
8.975229724330802,-0.982
8.97722732720735,-0.978
8.979224930083898,-0.977
8.981222532960446,-0.975
8.983220135836994,-0.975
8.985217738713542,-0.974
8.98721534159009,-0.974
8.989212944466638,-0.972
8.991210547343186,-0.971
8.993208150219736,-0.966
8.995205753096284,-0.964
8.997203355972832,-0.966
8.99920095884938,-0.962
9.001198561725928,-0.96
9.003196164602477,-0.962
9.005193767479025,-0.962
9.007191370355573,-0.959
9.00918897323212,-0.961
9.011186576108669,-0.962
9.013184178985217,-0.958
9.015181781861765,-0.955
9.017179384738313,-0.959
9.01917698761486,-0.96
9.021174590491409,-0.955
9.023172193367957,-0.955
9.025169796244505,-0.957
9.027167399121053,-0.96
9.029165001997601,-0.958
9.031162604874151,-0.954
9.033160207750699,-0.956
9.035157810627247,-0.955
9.037155413503795,-0.951
9.039153016380343,-0.947
9.041150619256891,-0.943
9.04314822213344,-0.939
9.045145825009987,-0.936
9.047143427886535,-0.931
9.049141030763083,-0.928
9.051138633639631,-0.929
9.05313623651618,-0.932
9.055133839392727,-0.93
9.057131442269275,-0.929
9.059129045145824,-0.929
9.061126648022372,-0.923
9.06312425089892,-0.923
9.065121853775468,-0.921
9.067119456652017,-0.916
9.069117059528566,-0.913
9.071114662405114,-0.908
9.073112265281662,-0.905
9.07510986815821,-0.905
9.077107471034758,-0.9
9.079105073911306,-0.895
9.081102676787854,-0.891
9.083100279664402,-0.884
9.08509788254095,-0.88
9.087095485417498,-0.879
9.089093088294046,-0.877
9.091090691170594,-0.875
9.093088294047142,-0.873
9.09508589692369,-0.869
9.097083499800238,-0.86
9.099081102676786,-0.857
9.101078705553334,-0.858
9.103076308429884,-0.853
9.105073911306432,-0.853
9.10707151418298,-0.853
9.109069117059528,-0.852
9.111066719936076,-0.845
9.113064322812624,-0.836
9.115061925689172,-0.834
9.11705952856572,-0.834
9.119057131442268,-0.833
9.121054734318816,-0.829
9.123052337195364,-0.822
9.125049940071913,-0.816
9.12704754294846,-0.809
9.129045145825009,-0.809
9.131042748701557,-0.808
9.133040351578105,-0.805
9.135037954454653,-0.805
9.1370355573312,-0.801
9.13903316020775,-0.799
9.141030763084299,-0.798
9.143028365960847,-0.796
9.145025968837395,-0.796
9.147023571713943,-0.796
9.14902117459049,-0.792
9.151018777467039,-0.783
9.153016380343587,-0.78
9.155013983220135,-0.78
9.157011586096683,-0.774
9.159009188973231,-0.768
9.161006791849779,-0.765
9.163004394726327,-0.764
9.165001997602875,-0.765
9.166999600479423,-0.763
9.168997203355971,-0.761
9.17099480623252,-0.763
9.172992409109067,-0.762
9.174990011985617,-0.76
9.176987614862165,-0.762
9.178985217738713,-0.765
9.180982820615261,-0.764
9.18298042349181,-0.767
9.184978026368357,-0.767
9.186975629244905,-0.77
9.188973232121453,-0.775
9.190970834998001,-0.773
9.19296843787455,-0.772
9.194966040751098,-0.772
9.196963643627646,-0.776
9.198961246504194,-0.782
9.200958849380742,-0.784
9.20295645225729,-0.788
9.204954055133838,-0.794
9.206951658010386,-0.796
9.208949260886934,-0.796
9.210946863763484,-0.806
9.212944466640032,-0.813
9.21494206951658,-0.815
9.216939672393128,-0.815
9.218937275269676,-0.819
9.220934878146224,-0.825
9.222932481022772,-0.831
9.22493008389932,-0.838
9.226927686775868,-0.841
9.228925289652416,-0.846
9.230922892528964,-0.85
9.232920495405512,-0.85
9.23491809828206,-0.853
9.236915701158608,-0.86
9.238913304035156,-0.865
9.240910906911704,-0.864
9.242908509788252,-0.868
9.2449061126648,-0.873
9.24690371554135,-0.874
9.248901318417898,-0.878
9.250898921294446,-0.884
9.252896524170994,-0.889
9.254894127047542,-0.892
9.25689172992409,-0.894
9.258889332800639,-0.896
9.260886935677187,-0.898
9.262884538553735,-0.898
9.264882141430283,-0.901
9.26687974430683,-0.905
9.268877347183379,-0.908
9.270874950059927,-0.905
9.272872552936475,-0.904
9.274870155813023,-0.916
9.276867758689571,-0.922
9.278865361566119,-0.921
9.280862964442667,-0.919
9.282860567319217,-0.919
9.284858170195765,-0.923
9.286855773072313,-0.928
9.288853375948861,-0.929
9.290850978825409,-0.93
9.292848581701957,-0.93
9.294846184578505,-0.927
9.296843787455053,-0.926
9.298841390331601,-0.931
9.30083899320815,-0.938
9.302836596084697,-0.94
9.304834198961245,-0.936
9.306831801837793,-0.936
9.308829404714341,-0.941
9.31082700759089,-0.94
9.312824610467437,-0.943
9.314822213343986,-0.948
9.316819816220534,-0.948
9.318817419097083,-0.944
9.320815021973631,-0.947
9.32281262485018,-0.95
9.324810227726728,-0.95
9.326807830603276,-0.949
9.328805433479824,-0.945
9.330803036356372,-0.942
9.33280063923292,-0.945
9.334798242109468,-0.947
9.336795844986016,-0.946
9.338793447862564,-0.949
9.340791050739112,-0.947
9.34278865361566,-0.946
9.344786256492208,-0.949
9.346783859368756,-0.948
9.348781462245304,-0.947
9.350779065121852,-0.945
9.3527766679984,-0.948
9.35477427087495,-0.949
9.356771873751498,-0.949
9.358769476628046,-0.948
9.360767079504594,-0.947
9.362764682381142,-0.951
9.36476228525769,-0.951
9.366759888134238,-0.95
9.368757491010786,-0.948
9.370755093887334,-0.951
9.372752696763882,-0.952
9.37475029964043,-0.951
9.376747902516978,-0.946
9.378745505393526,-0.943
9.380743108270075,-0.948
9.382740711146623,-0.946
9.38473831402317,-0.945
9.386735916899719,-0.951
9.388733519776267,-0.951
9.390731122652817,-0.949
9.392728725529365,-0.949
9.394726328405913,-0.948
9.39672393128246,-0.948
9.398721534159009,-0.948
9.400719137035557,-0.949
9.402716739912105,-0.949
9.404714342788653,-0.949
9.4067119456652,-0.944
9.408709548541749,-0.944
9.410707151418297,-0.949
9.412704754294845,-0.946
9.414702357171393,-0.948
9.416699960047941,-0.947
9.41869756292449,-0.947
9.420695165801037,-0.955
9.422692768677585,-0.957
9.424690371554133,-0.952
9.426687974430683,-0.951
9.428685577307231,-0.949
9.43068318018378,-0.944
9.432680783060327,-0.943
9.434678385936875,-0.941
9.436675988813423,-0.94
9.438673591689971,-0.944
9.44067119456652,-0.948
9.442668797443067,-0.947
9.444666400319615,-0.951
9.446664003196164,-0.95
9.448661606072712,-0.946
9.45065920894926,-0.949
9.452656811825808,-0.949
9.454654414702356,-0.947
9.456652017578904,-0.951
9.458649620455452,-0.955
9.460647223332,-0.953
9.46264482620855,-0.958
9.464642429085098,-0.961
9.466640031961646,-0.955
9.468637634838194,-0.949
9.470635237714742,-0.946
9.47263284059129,-0.947
9.474630443467838,-0.946
9.476628046344386,-0.948
9.478625649220934,-0.95
9.480623252097482,-0.951
9.48262085497403,-0.949
9.484618457850578,-0.948
9.486616060727126,-0.949
9.488613663603674,-0.948
9.490611266480222,-0.95
9.49260886935677,-0.95
9.494606472233318,-0.951
9.496604075109866,-0.952
9.498601677986416,-0.951
9.500599280862964,-0.953
9.502596883739512,-0.953
9.50459448661606,-0.951
9.506592089492608,-0.951
9.508589692369156,-0.955
9.510587295245704,-0.954
9.512584898122252,-0.953
9.5145825009988,-0.954
9.516580103875349,-0.952
