Time,V3
0.0,0.573
0.001997602876548142,0.574
0.003995205753096284,0.576
0.005992808629644426,0.576
0.007990411506192568,0.577
0.00998801438274071,0.581
0.011985617259288851,0.583
0.013983220135836994,0.581
0.015980823012385136,0.583
0.017978425888933277,0.586
0.01997602876548142,0.588
0.021973631642029562,0.591
0.023971234518577703,0.591
0.025968837395125847,0.595
0.027966440271673988,0.595
0.02996404314822213,0.597
0.03196164602477027,0.6
0.03395924890131841,0.599
0.035956851777866554,0.603
0.0379544546544147,0.604
0.03995205753096284,0.606
0.04194966040751098,0.608
0.043947263284059124,0.606
0.045944866160607264,0.609
0.047942469037155405,0.609
0.04994007191370355,0.613
0.051937674790251694,0.617
0.053935277666799834,0.617
0.055932880543347975,0.623
0.057930483419896116,0.622
0.05992808629644426,0.625
0.061925689172992404,0.628
0.06392329204954054,0.626
0.06592089492608869,0.631
0.06791849780263683,0.634
0.06991610067918497,0.636
0.07191370355573311,0.639
0.07391130643228125,0.641
0.0759089093088294,0.643
0.07790651218537754,0.643
0.07990411506192568,0.644
0.08190171793847383,0.645
0.08389932081502197,0.649
0.0858969236915701,0.652
0.08789452656811825,0.653
0.08989212944466639,0.653
0.09188973232121453,0.66
0.09388733519776267,0.665
0.09588493807431081,0.667
0.09788254095085897,0.671
0.0998801438274071,0.673
0.10187774670395525,0.675
0.10387534958050339,0.677
0.10587295245705153,0.684
0.10787055533359967,0.689
0.10986815821014781,0.691
0.11186576108669595,0.695
0.11386336396324409,0.696
0.11586096683979223,0.699
0.11785856971634039,0.703
0.11985617259288853,0.708
0.12185377546943667,0.713
0.12385137834598481,0.717
0.12584898122253294,0.722
0.1278465840990811,0.726
0.12984418697562924,0.729
0.13184178985217737,0.735
0.13383939272872553,0.739
0.13583699560527365,0.742
0.1378345984818218,0.747
0.13983220135836993,0.75
0.1418298042349181,0.755
0.14382740711146622,0.762
0.14582500998801437,0.766
0.1478226128645625,0.772
0.14982021574111065,0.777
0.1518178186176588,0.782
0.15381542149420693,0.787
0.1558130243707551,0.791
0.15781062724730321,0.796
0.15980823012385137,0.801
0.1618058330003995,0.806
0.16380343587694765,0.811
0.16580103875349578,0.814
0.16779864163004393,0.819
0.16979624450659206,0.827
0.1717938473831402,0.832
0.17379145025968837,0.837
0.1757890531362365,0.84
0.17778665601278465,0.845
0.17978425888933278,0.85
0.18178186176588093,0.854
0.18377946464242906,0.861
0.1857770675189772,0.868
0.18777467039552534,0.871
0.1897722732720735,0.876
0.19176987614862162,0.882
0.19376747902516978,0.887
0.19576508190171793,0.892
0.19776268477826606,0.896
0.1997602876548142,0.898
0.20175789053136234,0.9
0.2037554934079105,0.904
0.20575309628445862,0.909
0.20775069916100677,0.912
0.2097483020375549,0.918
0.21174590491410306,0.923
0.2137435077906512,0.927
0.21574111066719934,0.931
0.2177387135437475,0.933
0.21973631642029562,0.938
0.22173391929684377,0.941
0.2237315221733919,0.944
0.22572912504994005,0.95
0.22772672792648818,0.953
0.22972433080303634,0.955
0.23172193367958446,0.955
0.23371953655613262,0.958
0.23571713943268077,0.959
0.2377147423092289,0.961
0.23971234518577705,0.962
0.24170994806232518,0.963
0.24370755093887334,0.964
0.24570515381542146,0.962
0.24770275669196962,0.962
0.24970035956851774,0.962
0.25169796244506587,0.963
0.253695565321614,0.962
0.2556931681981622,0.962
0.25769077107471033,0.959
0.2596883739512585,0.958
0.2616859768278066,0.959
0.26368357970435474,0.956
0.2656811825809029,0.956
0.26767878545745105,0.954
0.26967638833399915,0.952
0.2716739912105473,0.951
0.27367159408709546,0.949
0.2756691969636436,0.945
0.27766679984019177,0.943
0.27966440271673987,0.94
0.281662005593288,0.933
0.2836596084698362,0.929
0.28565721134638433,0.926
0.28765481422293243,0.922
0.2896524170994806,0.919
0.29165001997602874,0.913
0.2936476228525769,0.908
0.295645225729125,0.903
0.29764282860567315,0.895
0.2996404314822213,0.89
0.30163803435876946,0.885
0.3036356372353176,0.878
0.3056332401118657,0.873
0.30763084298841387,0.864
0.309628445864962,0.858
0.3116260487415102,0.852
0.3136236516180583,0.844
0.31562125449460643,0.836
0.3176188573711546,0.826
0.31961646024770274,0.817
0.3216140631242509,0.809
0.323611666000799,0.798
0.32560926887734715,0.788
0.3276068717538953,0.783
0.32960447463044346,0.776
0.33160207750699155,0.764
0.3335996803835397,0.755
0.33559728326008786,0.748
0.337594886136636,0.737
0.3395924890131841,0.728
0.3415900918897323,0.72
0.3435876947662804,0.713
0.3455852976428286,0.707
0.34758290051937674,0.699
0.34958050339592484,0.691
0.351578106272473,0.682
0.35357570914902114,0.674
0.3555733120255693,0.667
0.3575709149021174,0.66
0.35956851777866555,0.65
0.3615661206552137,0.645
0.36356372353176186,0.638
0.36556132640831,0.63
0.3675589292848581,0.626
0.36955653216140627,0.619
0.3715541350379544,0.614
0.3735517379145026,0.609
0.3755493407910507,0.605
0.37754694366759883,0.599
0.379544546544147,0.595
0.38154214942069514,0.591
0.38353975229724324,0.586
0.3855373551737914,0.583
0.38753495805033955,0.577
0.3895325609268877,0.575
0.39153016380343586,0.573
0.39352776667998396,0.567
0.3955253695565321,0.564
0.39752297243308027,0.558
0.3995205753096284,0.554
0.4015181781861765,0.552
0.4035157810627247,0.549
0.40551338393927283,0.543
0.407510986815821,0.539
0.40950858969236914,0.538
0.41150619256891724,0.538
0.4135037954454654,0.536
0.41550139832201355,0.531
0.4174990011985617,0.529
0.4194966040751098,0.527
0.42149420695165796,0.526
0.4234918098282061,0.526
0.42548941270475427,0.525
0.4274870155813024,0.522
0.4294846184578505,0.522
0.4314822213343987,0.524
0.43347982421094683,0.519
0.435477427087495,0.517
0.4374750299640431,0.518
0.43947263284059124,0.518
0.4414702357171394,0.518
0.44346783859368755,0.517
0.44546544147023565,0.516
0.4474630443467838,0.515
0.44946064722333195,0.513
0.4514582500998801,0.512
0.45345585297642826,0.511
0.45545345585297636,0.512
0.4574510587295245,0.51
0.4594486616060727,0.507
0.4614462644826208,0.508
0.4634438673591689,0.507
0.4654414702357171,0.508
0.46743907311226524,0.511
0.4694366759888134,0.509
0.47143427886536154,0.507
0.47343188174190964,0.506
0.4754294846184578,0.507
0.47742708749500595,0.507
0.4794246903715541,0.505
0.4814222932481022,0.505
0.48341989612465036,0.504
0.4854174990011985,0.502
0.48741510187774667,0.5
0.48941270475429477,0.501
0.4914103076308429,0.503
0.4934079105073911,0.502
0.49540551338393923,0.505
0.4974031162604874,0.504
0.4994007191370355,0.501
0.5013983220135837,0.5
0.5033959248901317,0.503
0.5053935277666799,0.506
0.507391130643228,0.505
0.5093887335197762,0.504
0.5113863363963244,0.503
0.5133839392728725,0.502
0.5153815421494207,0.503
0.5173791450259688,0.504
0.519376747902517,0.501
0.521374350779065,0.5
0.5233719536556132,0.501
0.5253695565321613,0.501
0.5273671594087095,0.497
0.5293647622852576,0.497
0.5313623651618058,0.497
0.533359968038354,0.498
0.5353575709149021,0.5
0.5373551737914503,0.498
0.5393527766679983,0.498
0.5413503795445465,0.497
0.5433479824210946,0.496
0.5453455852976428,0.5
0.5473431881741909,0.498
0.5493407910507391,0.498
0.5513383939272872,0.497
0.5533359968038354,0.497
0.5553335996803835,0.494
0.5573312025569316,0.495
0.5593288054334797,0.497
0.5613264083100279,0.499
0.563324011186576,0.498
0.5653216140631242,0.495
0.5673192169396724,0.496
0.5693168198162205,0.496
0.5713144226927687,0.495
0.5733120255693167,0.494
0.5753096284458649,0.494
0.577307231322413,0.496
0.5793048341989612,0.497
0.5813024370755093,0.496
0.5833000399520575,0.498
0.5852976428286056,0.501
0.5872952457051538,0.5
0.589292848581702,0.501
0.59129045145825,0.5
0.5932880543347981,0.502
0.5952856572113463,0.504
0.5972832600878945,0.503
0.5992808629644426,0.505
0.6012784658409908,0.505
0.6032760687175389,0.504
0.6052736715940871,0.502
0.6072712744706352,0.502
0.6092688773471833,0.503
0.6112664802237314,0.504
0.6132640831002796,0.505
0.6152616859768277,0.508
0.6172592888533759,0.507
0.619256891729924,0.504
0.6212544946064722,0.504
0.6232520974830204,0.507
0.6252497003595685,0.51
0.6272473032361165,0.508
0.6292449061126647,0.509
0.6312425089892129,0.51
0.633240111865761,0.51
0.6352377147423092,0.509
0.6372353176188573,0.511
0.6392329204954055,0.511
0.6412305233719536,0.51
0.6432281262485018,0.51
0.6452257291250498,0.51
0.647223332001598,0.511
0.6492209348781461,0.513
0.6512185377546943,0.51
0.6532161406312424,0.506
0.6552137435077906,0.509
0.6572113463843388,0.508
0.6592089492608869,0.508
0.6612065521374351,0.511
0.6632041550139831,0.51
0.6652017578905313,0.51
0.6671993607670794,0.509
0.6691969636436276,0.508
0.6711945665201757,0.508
0.6731921693967239,0.508
0.675189772273272,0.509
0.6771873751498202,0.51
0.6791849780263682,0.51
0.6811825809029164,0.513
0.6831801837794645,0.511
0.6851777866560127,0.509
0.6871753895325609,0.509
0.689172992409109,0.51
0.6911705952856572,0.511
0.6931681981622053,0.511
0.6951658010387535,0.511
0.6971634039153015,0.511
0.6991610067918497,0.512
0.7011586096683978,0.51
0.703156212544946,0.511
0.7051538154214941,0.513
0.7071514182980423,0.512
0.7091490211745904,0.512
0.7111466240511386,0.51
0.7131442269276868,0.512
0.7151418298042348,0.512
0.717139432680783,0.511
0.7191370355573311,0.512
0.7211346384338793,0.512
0.7231322413104274,0.511
0.7251298441869756,0.507
0.7271274470635237,0.507
0.7291250499400719,0.506
0.73112265281662,0.504
0.7331202556931681,0.502
0.7351178585697162,0.503
0.7371154614462644,0.506
0.7391130643228125,0.504
0.7411106671993607,0.503
0.7431082700759088,0.505
0.745105872952457,0.506
0.7471034758290052,0.506
0.7491010787055533,0.504
0.7510986815821014,0.5
0.7530962844586495,0.5
0.7550938873351977,0.5
0.7570914902117458,0.5
0.759089093088294,0.498
0.7610866959648421,0.498
0.7630842988413903,0.499
0.7650819017179384,0.496
0.7670795045944865,0.494
0.7690771074710346,0.493
0.7710747103475828,0.496
0.773072313224131,0.496
0.7750699161006791,0.495
0.7770675189772273,0.494
0.7790651218537754,0.492
0.7810627247303236,0.492
0.7830603276068717,0.492
0.7850579304834198,0.494
0.7870555333599679,0.493
0.7890531362365161,0.492
0.7910507391130642,0.493
0.7930483419896124,0.492
0.7950459448661605,0.49
0.7970435477427087,0.489
0.7990411506192568,0.49
0.801038753495805,0.489
0.803036356372353,0.489
0.8050339592489012,0.487
0.8070315621254494,0.485
0.8090291650019975,0.485
0.8110267678785457,0.485
0.8130243707550938,0.485
0.815021973631642,0.483
0.8170195765081901,0.484
0.8190171793847383,0.482
0.8210147822612863,0.482
0.8230123851378345,0.483
0.8250099880143826,0.483
0.8270075908909308,0.485
0.8290051937674789,0.484
0.8310027966440271,0.484
0.8330003995205753,0.483
0.8349980023971234,0.483
0.8369956052736716,0.481
0.8389932081502196,0.479
0.8409908110267678,0.481
0.8429884139033159,0.48
0.8449860167798641,0.479
0.8469836196564122,0.476
0.8489812225329604,0.475
0.8509788254095085,0.478
0.8529764282860567,0.476
0.8549740311626048,0.478
0.8569716340391529,0.475
0.858969236915701,0.472
0.8609668397922492,0.472
0.8629644426687973,0.471
0.8649620455453455,0.473
0.8669596484218937,0.472
0.8689572512984418,0.472
0.87095485417499,0.472
0.872952457051538,0.473
0.8749500599280862,0.471
0.8769476628046343,0.472
0.8789452656811825,0.473
0.8809428685577306,0.472
0.8829404714342788,0.471
0.8849380743108269,0.471
0.8869356771873751,0.47
0.8889332800639232,0.469
0.8909308829404713,0.469
0.8929284858170194,0.469
0.8949260886935676,0.47
0.8969236915701158,0.469
0.8989212944466639,0.468
0.9009188973232121,0.466
0.9029165001997602,0.463
0.9049141030763084,0.466
0.9069117059528565,0.467
0.9089093088294046,0.466
0.9109069117059527,0.465
0.9129045145825009,0.464
0.914902117459049,0.465
0.9168997203355972,0.465
0.9188973232121453,0.467
0.9208949260886935,0.465
0.9228925289652417,0.464
0.9248901318417898,0.462
0.9268877347183379,0.46
0.928885337594886,0.459
0.9308829404714342,0.459
0.9328805433479823,0.461
0.9348781462245305,0.459
0.9368757491010786,0.459
0.9388733519776268,0.459
0.9408709548541749,0.458
0.9428685577307231,0.459
0.9448661606072711,0.459
0.9468637634838193,0.46
0.9488613663603674,0.459
0.9508589692369156,0.458
0.9528565721134638,0.46
0.9548541749900119,0.46
0.9568517778665601,0.457
0.9588493807431082,0.457
0.9608469836196564,0.458
0.9628445864962044,0.456
0.9648421893727526,0.454
0.9668397922493007,0.455
0.9688373951258489,0.456
0.970834998002397,0.455
0.9728326008789452,0.456
0.9748302037554933,0.456
0.9768278066320415,0.456
0.9788254095085895,0.456
0.9808230123851377,0.454
0.9828206152616858,0.454
0.984818218138234,0.454
0.9868158210147822,0.455
0.9888134238913303,0.455
0.9908110267678785,0.454
0.9928086296444266,0.455
0.9948062325209748,0.455
0.9968038353975228,0.454
0.998801438274071,0.456
1.0007990411506191,0.455
1.0027966440271674,0.455
1.0047942469037154,0.453
1.0067918497802635,0.451
1.0087894526568117,0.452
1.0107870555333598,0.45
1.012784658409908,0.448
1.014782261286456,0.449
1.0167798641630044,0.448
1.0187774670395524,0.447
1.0207750699161007,0.447
1.0227726727926487,0.447
1.0247702756691968,0.448
1.026767878545745,0.449
1.028765481422293,0.451
1.0307630842988413,0.45
1.0327606871753894,0.449
1.0347582900519376,0.45
1.0367558929284857,0.452
1.038753495805034,0.452
1.040751098681582,0.45
1.04274870155813,0.453
1.0447463044346783,0.454
1.0467439073112264,0.45
1.0487415101877746,0.447
1.0507391130643227,0.447
1.052736715940871,0.45
1.054734318817419,0.451
1.0567319216939672,0.451
1.0587295245705153,0.449
1.0607271274470633,0.448
1.0627247303236116,0.45
1.0647223332001596,0.45
1.066719936076708,0.451
1.068717538953256,0.451
1.0707151418298042,0.449
1.0727127447063523,0.45
1.0747103475829005,0.448
1.0767079504594486,0.447
1.0787055533359966,0.449
1.0807031562125449,0.447
1.082700759089093,0.449
1.0846983619656412,0.449
1.0866959648421892,0.444
1.0886935677187375,0.446
1.0906911705952855,0.447
1.0926887734718338,0.447
1.0946863763483818,0.448
1.0966839792249299,0.447
1.0986815821014781,0.448
1.1006791849780262,0.448
1.1026767878545745,0.448
1.1046743907311225,0.448
1.1066719936076708,0.448
1.1086695964842188,0.448
1.110667199360767,0.447
1.1126648022373151,0.446
1.1146624051138632,0.447
1.1166600079904114,0.447
1.1186576108669595,0.446
1.1206552137435077,0.447
1.1226528166200558,0.446
1.124650419496604,0.446
1.126648022373152,0.447
1.1286456252497001,0.448
1.1306432281262484,0.445
1.1326408310027964,0.443
1.1346384338793447,0.445
1.1366360367558928,0.447
1.138633639632441,0.447
1.140631242508989,0.446
1.1426288453855373,0.447
1.1446264482620854,0.448
1.1466240511386334,0.448
1.1486216540151817,0.447
1.1506192568917297,0.447
1.152616859768278,0.446
1.154614462644826,0.446
1.1566120655213743,0.446
1.1586096683979223,0.445
1.1606072712744706,0.447
1.1626048741510187,0.447
1.1646024770275667,0.445
1.166600079904115,0.447
1.168597682780663,0.446
1.1705952856572113,0.445
1.1725928885337593,0.446
1.1745904914103076,0.444
1.1765880942868556,0.445
1.178585697163404,0.445
1.180583300039952,0.444
1.1825809029165,0.444
1.1845785057930482,0.444
1.1865761086695963,0.446
1.1885737115461446,0.445
1.1905713144226926,0.444
1.1925689172992409,0.445
1.194566520175789,0.444
1.1965641230523372,0.443
1.1985617259288852,0.447
1.2005593288054333,0.449
1.2025569316819815,0.448
1.2045545345585296,0.448
1.2065521374350778,0.448
1.2085497403116259,0.447
1.2105473431881741,0.447
1.2125449460647222,0.448
1.2145425489412705,0.448
1.2165401518178185,0.45
1.2185377546943665,0.453
1.2205353575709148,0.454
1.2225329604474628,0.454
1.2245305633240111,0.456
1.2265281662005592,0.458
1.2285257690771074,0.46
1.2305233719536555,0.463
1.2325209748302037,0.464
1.2345185777067518,0.466
1.2365161805832998,0.469
1.238513783459848,0.47
1.2405113863363961,0.472
1.2425089892129444,0.472
1.2445065920894924,0.47
1.2465041949660407,0.471
1.2485017978425887,0.471
1.250499400719137,0.47
1.252497003595685,0.472
1.254494606472233,0.471
1.2564922093487814,0.473
1.2584898122253294,0.475
1.2604874151018777,0.475
1.2624850179784257,0.476
1.264482620854974,0.477
1.266480223731522,0.479
1.2684778266080703,0.48
1.2704754294846183,0.479
1.2724730323611664,0.479
1.2744706352377146,0.479
1.2764682381142627,0.48
1.278465840990811,0.484
1.280463443867359,0.489
1.2824610467439073,0.49
1.2844586496204553,0.487
1.2864562524970036,0.483
1.2884538553735516,0.481
1.2904514582500997,0.479
1.292449061126648,0.478
1.294446664003196,0.482
1.2964442668797442,0.484
1.2984418697562923,0.483
1.3004394726328405,0.483
1.3024370755093886,0.483
1.3044346783859369,0.483
1.306432281262485,0.48
1.308429884139033,0.479
1.3104274870155812,0.477
1.3124250898921292,0.474
1.3144226927686775,0.476
1.3164202956452256,0.474
1.3184178985217738,0.474
1.3204155013983219,0.474
1.3224131042748701,0.47
1.3244107071514182,0.465
1.3264083100279662,0.461
1.3284059129045145,0.46
1.3304035157810625,0.456
1.3324011186576108,0.456
1.3343987215341588,0.457
1.336396324410707,0.459
1.3383939272872551,0.464
1.3403915301638032,0.466
1.3423891330403515,0.468
1.3443867359168995,0.469
1.3463843387934478,0.473
1.3483819416699958,0.478
1.350379544546544,0.481
1.3523771474230921,0.481
1.3543747502996404,0.484
1.3563723531761884,0.485
1.3583699560527365,0.483
1.3603675589292847,0.484
1.3623651618058328,0.484
1.364362764682381,0.484
1.366360367558929,0.484
1.3683579704354774,0.485
1.3703555733120254,0.482
1.3723531761885737,0.484
1.3743507790651217,0.484
1.3763483819416698,0.484
1.378345984818218,0.487
1.380343587694766,0.486
1.3823411905713143,0.488
1.3843387934478624,0.486
1.3863363963244106,0.481
1.3883339992009587,0.477
1.390331602077507,0.476
1.392329204954055,0.473
1.394326807830603,0.469
1.3963244107071513,0.468
1.3983220135836993,0.466
1.4003196164602476,0.464
1.4023172193367957,0.458
1.404314822213344,0.452
1.406312425089892,0.454
1.4083100279664402,0.454
1.4103076308429883,0.451
1.4123052337195363,0.45
1.4143028365960846,0.45
1.4163004394726326,0.447
1.4182980423491809,0.443
1.420295645225729,0.44
1.4222932481022772,0.438
1.4242908509788252,0.436
1.4262884538553735,0.436
1.4282860567319215,0.434
1.4302836596084696,0.432
1.4322812624850179,0.43
1.434278865361566,0.426
1.4362764682381142,0.422
1.4382740711146622,0.421
1.4402716739912105,0.42
1.4422692768677585,0.419
1.4442668797443068,0.416
1.4462644826208548,0.415
1.4482620854974029,0.413
1.4502596883739511,0.413
1.4522572912504992,0.415
1.4542548941270474,0.415
1.4562524970035955,0.415
1.4582500998801438,0.412
1.4602477027566918,0.412
1.46224530563324,0.413
1.464242908509788,0.413
1.4662405113863362,0.412
1.4682381142628844,0.411
1.4702357171394325,0.413
1.4722333200159807,0.413
1.4742309228925288,0.414
1.476228525769077,0.417
1.478226128645625,0.416
1.4802237315221733,0.417
1.4822213343987214,0.418
1.4842189372752694,0.416
1.4862165401518177,0.415
1.4882141430283657,0.412
1.490211745904914,0.413
1.492209348781462,0.414
1.4942069516580103,0.415
1.4962045545345584,0.413
1.4982021574111066,0.412
1.5001997602876547,0.415
1.5021973631642027,0.416
1.504194966040751,0.42
1.506192568917299,0.424
1.5081901717938473,0.425
1.5101877746703953,0.429
1.5121853775469436,0.433
1.5141829804234916,0.44
1.51618058330004,0.453
1.518178186176588,0.473
1.520175789053136,0.494
1.5221733919296843,0.514
1.5241709948062323,0.529
1.5261685976827806,0.544
1.5281662005593286,0.559
1.5301638034358769,0.578
1.532161406312425,0.61
1.534159009188973,0.654
1.5361566120655212,0.694
1.5381542149420693,0.73
1.5401518178186175,0.782
1.5421494206951656,0.846
1.5441470235717139,0.902
1.546144626448262,0.943
1.5481422293248102,0.981
1.5501398322013582,1.025
1.5521374350779062,1.079
1.5541350379544545,1.146
1.5561326408310026,1.217
1.5581302437075508,1.27
1.5601278465840989,1.303
1.5621254494606471,1.333
1.5641230523371952,1.349
1.5661206552137434,1.364
1.5681182580902915,1.38
1.5701158609668395,1.397
1.5721134638433878,1.425
1.5741110667199358,1.456
1.576108669596484,1.476
1.5781062724730321,1.488
1.5801038753495804,1.478
1.5821014782261285,1.425
1.5840990811026767,1.351
1.5860966839792248,1.254
1.5880942868557728,1.149
1.590091889732321,1.022
1.5920894926088691,0.881
1.5940870954854174,0.741
1.5960846983619654,0.582
1.5980823012385137,0.404
1.6000799041150617,0.219
1.60207750699161,0.021
1.604075109868158,-0.165
1.606072712744706,-0.336
1.6080703156212544,-0.526
1.6100679184978024,-0.704
1.6120655213743507,-0.85
1.6140631242508987,-0.97
1.616060727127447,-1.042
1.618058330003995,-1.036
1.6200559328805433,-0.991
1.6220535357570913,-0.938
1.6240511386336394,-0.873
1.6260487415101876,-0.805
1.6280463443867357,-0.734
1.630043947263284,-0.659
1.632041550139832,-0.595
1.6340391530163803,-0.535
1.6360367558929283,-0.467
1.6380343587694766,-0.401
1.6400319616460246,-0.333
1.6420295645225726,-0.27
1.644027167399121,-0.204
1.646024770275669,-0.139
1.6480223731522172,-0.08
1.6500199760287653,-0.029
1.6520175789053135,0.011
1.6540151817818616,0.058
1.6560127846584098,0.099
1.6580103875349579,0.135
1.660007990411506,0.17
1.6620055932880542,0.205
1.6640031961646022,0.242
1.6660007990411505,0.275
1.6679984019176985,0.302
1.6699960047942468,0.328
1.6719936076707949,0.349
1.6739912105473431,0.363
1.6759888134238912,0.379
1.6779864163004392,0.392
1.6799840191769875,0.401
1.6819816220535355,0.41
1.6839792249300838,0.417
1.6859768278066318,0.419
1.68797443068318,0.423
1.6899720335597281,0.429
1.6919696364362764,0.431
1.6939672393128244,0.435
1.6959648421893725,0.439
1.6979624450659208,0.443
1.6999600479424688,0.448
1.701957650819017,0.451
1.703955253695565,0.454
1.7059528565721134,0.458
1.7079504594486614,0.459
1.7099480623252097,0.462
1.7119456652017577,0.464
1.7139432680783058,0.467
1.715940870954854,0.469
1.717938473831402,0.471
1.7199360767079503,0.474
1.7219336795844984,0.473
1.7239312824610467,0.474
1.7259288853375947,0.477
1.727926488214143,0.48
1.729924091090691,0.481
1.731921693967239,0.482
1.7339192968437873,0.485
1.7359168997203354,0.486
1.7379145025968836,0.488
1.7399121054734317,0.489
1.74190970834998,0.488
1.743907311226528,0.493
1.745904914103076,0.494
1.7479025169796243,0.495
1.7499001198561723,0.496
1.7518977227327206,0.494
1.7538953256092686,0.497
1.755892928485817,0.501
1.757890531362365,0.503
1.7598881342389132,0.505
1.7618857371154613,0.506
1.7638833399920093,0.507
1.7658809428685576,0.507
1.7678785457451056,0.507
1.7698761486216539,0.51
1.771873751498202,0.513
1.7738713543747502,0.513
1.7758689572512982,0.515
1.7778665601278465,0.517
1.7798641630043945,0.516
1.7818617658809426,0.515
1.7838593687574908,0.518
1.785856971634039,0.519
1.7878545745105872,0.519
1.7898521773871352,0.52
1.7918497802636835,0.524
1.7938473831402315,0.526
1.7958449860167798,0.525
1.7978425888933278,0.526
1.7998401917698759,0.526
1.8018377946464241,0.525
1.8038353975229722,0.525
1.8058330003995204,0.525
1.8078306032760685,0.528
1.8098282061526167,0.531
1.8118258090291648,0.532
1.813823411905713,0.532
1.815821014782261,0.534
1.8178186176588091,0.536
1.8198162205353574,0.536
1.8218138234119055,0.537
1.8238114262884537,0.541
1.8258090291650018,0.54
1.82780663204155,0.541
1.829804234918098,0.543
1.8318018377946463,0.543
1.8337994406711944,0.544
1.8357970435477424,0.545
1.8377946464242907,0.546
1.8397922493008387,0.547
1.841789852177387,0.549
1.843787455053935,0.549
1.8457850579304833,0.549
1.8477826608070314,0.549
1.8497802636835796,0.55
1.8517778665601277,0.553
1.8537754694366757,0.554
1.855773072313224,0.554
1.857770675189772,0.556
1.8597682780663203,0.556
1.8617658809428683,0.555
1.8637634838194166,0.559
1.8657610866959646,0.562
1.867758689572513,0.564
1.869756292449061,0.567
1.871753895325609,0.57
1.8737514982021573,0.571
1.8757491010787053,0.574
1.8777467039552536,0.575
1.8797443068318016,0.577
1.8817419097083499,0.579
1.883739512584898,0.58
1.8857371154614462,0.579
1.8877347183379942,0.581
1.8897323212145423,0.584
1.8917299240910905,0.585
1.8937275269676386,0.588
1.8957251298441868,0.591
1.8977227327207349,0.592
1.8997203355972831,0.594
1.9017179384738312,0.595
1.9037155413503795,0.598
1.9057131442269275,0.601
1.9077107471034755,0.603
1.9097083499800238,0.607
1.9117059528565719,0.606
1.9137035557331201,0.608
1.9157011586096682,0.61
1.9176987614862164,0.613
1.9196963643627645,0.616
1.9216939672393127,0.618
1.9236915701158608,0.62
1.9256891729924088,0.621
1.927686775868957,0.624
1.9296843787455051,0.629
1.9316819816220534,0.633
1.9336795844986014,0.634
1.9356771873751497,0.639
1.9376747902516978,0.641
1.939672393128246,0.642
1.941669996004794,0.646
1.943667598881342,0.649
1.9456652017578904,0.656
1.9476628046344384,0.661
1.9496604075109867,0.663
1.9516580103875347,0.665
1.953655613264083,0.668
1.955653216140631,0.67
1.957650819017179,0.675
1.9596484218937273,0.678
1.9616460247702754,0.681
1.9636436276468237,0.683
1.9656412305233717,0.688
1.96763883339992,0.693
1.969636436276468,0.696
1.9716340391530163,0.703
1.9736316420295643,0.709
1.9756292449061124,0.711
1.9776268477826606,0.714
1.9796244506592087,0.719
1.981622053535757,0.723
1.983619656412305,0.727
1.9856172592888532,0.733
1.9876148621654013,0.74
1.9896124650419496,0.744
1.9916100679184976,0.748
1.9936076707950456,0.754
1.995605273671594,0.76
1.997602876548142,0.763
1.9996004794246902,0.768
2.0015980823012383,0.774
2.0035956851777863,0.778
2.005593288054335,0.784
2.007590890930883,0.788
2.009588493807431,0.792
2.011586096683979,0.799
2.013583699560527,0.805
2.0155813024370755,0.812
2.0175789053136235,0.817
2.0195765081901715,0.821
2.0215741110667196,0.827
2.023571713943268,0.834
2.025569316819816,0.84
2.027566919696364,0.845
2.029564522572912,0.849
2.0315621254494602,0.852
2.0335597283260087,0.857
2.0355573312025568,0.863
2.037554934079105,0.867
2.039552536955653,0.871
2.0415501398322013,0.875
2.0435477427087494,0.879
2.0455453455852974,0.885
2.0475429484618455,0.89
2.0495405513383935,0.893
2.051538154214942,0.898
2.05353575709149,0.902
2.055533359968038,0.906
2.057530962844586,0.909
2.0595285657211346,0.914
2.0615261685976827,0.919
2.0635237714742307,0.923
2.0655213743507788,0.928
2.067518977227327,0.93
2.0695165801038753,0.935
2.0715141829804233,0.94
2.0735117858569714,0.941
2.0755093887335194,0.943
2.077506991610068,0.945
2.079504594486616,0.945
2.081502197363164,0.947
2.083499800239712,0.948
2.08549740311626,0.947
2.0874950059928086,0.951
2.0894926088693566,0.952
2.0914902117459047,0.953
2.0934878146224527,0.954
2.095485417499001,0.954
2.0974830203755492,0.956
2.0994806232520973,0.953
2.1014782261286453,0.952
2.1034758290051934,0.953
2.105473431881742,0.953
2.10747103475829,0.952
2.109468637634838,0.949
2.111466240511386,0.948
2.1134638433879345,0.947
2.1154614462644825,0.945
2.1174590491410306,0.94
2.1194566520175786,0.938
2.1214542548941266,0.936
2.123451857770675,0.933
2.125449460647223,0.929
2.127447063523771,0.923
2.1294446664003193,0.919
2.1314422692768678,0.916
2.133439872153416,0.913
2.135437475029964,0.909
2.137435077906512,0.904
2.13943268078306,0.899
2.1414302836596084,0.894
2.1434278865361565,0.889
2.1454254894127045,0.886
2.1474230922892525,0.879
2.149420695165801,0.873
2.151418298042349,0.866
2.153415900918897,0.86
2.155413503795445,0.851
2.157411106671993,0.844
2.1594087095485417,0.838
2.1614063124250897,0.829
2.163403915301638,0.82
2.165401518178186,0.808
2.1673991210547343,0.8
2.1693967239312824,0.794
2.1713943268078304,0.781
2.1733919296843784,0.774
2.1753895325609265,0.765
2.177387135437475,0.754
2.179384738314023,0.747
2.181382341190571,0.736
2.183379944067119,0.729
2.1853775469436676,0.722
2.1873751498202156,0.714
2.1893727526967637,0.705
2.1913703555733117,0.697
2.1933679584498598,0.689
2.1953655613264083,0.68
2.1973631642029563,0.672
2.1993607670795043,0.665
2.2013583699560524,0.659
2.203355972832601,0.652
2.205353575709149,0.646
2.207351178585697,0.637
2.209348781462245,0.629
2.211346384338793,0.624
2.2133439872153415,0.619
2.2153415900918896,0.617
2.2173391929684376,0.61
2.2193367958449857,0.599
2.221334398721534,0.593
2.223332001598082,0.59
2.2253296044746302,0.587
2.2273272073511783,0.581
2.2293248102277263,0.576
2.231322413104275,0.571
2.233320015980823,0.567
2.235317618857371,0.563
2.237315221733919,0.557
2.2393128246104674,0.553
2.2413104274870155,0.548
2.2433080303635635,0.544
2.2453056332401116,0.538
2.2473032361166596,0.536
2.249300838993208,0.535
2.251298441869756,0.532
2.253296044746304,0.529
2.2552936476228522,0.525
2.2572912504994003,0.522
2.2592888533759488,0.522
2.261286456252497,0.52
2.263284059129045,0.518
2.265281662005593,0.517
2.2672792648821414,0.516
2.2692768677586894,0.513
2.2712744706352375,0.513
2.2732720735117855,0.511
2.2752696763883336,0.509
2.277267279264882,0.509
2.27926488214143,0.508
2.281262485017978,0.506
2.283260087894526,0.506
2.2852576907710747,0.503
2.2872552936476227,0.502
2.2892528965241707,0.501
2.291250499400719,0.5
2.293248102277267,0.503
2.2952457051538153,0.502
2.2972433080303634,0.502
2.2992409109069114,0.502
2.3012385137834594,0.501
2.303236116660008,0.5
2.305233719536556,0.499
2.307231322413104,0.498
2.309228925289652,0.497
2.3112265281662,0.498
2.3132241310427486,0.497
2.3152217339192966,0.496
2.3172193367958447,0.494
2.3192169396723927,0.494
2.321214542548941,0.496
2.3232121454254893,0.495
2.3252097483020373,0.494
2.3272073511785853,0.492
2.3292049540551334,0.491
2.331202556931682,0.49
2.33320015980823,0.49
2.335197762684778,0.489
2.337195365561326,0.486
2.3391929684378745,0.486
2.3411905713144225,0.487
2.3431881741909706,0.487
2.3451857770675186,0.487
2.3471833799440667,0.488
2.349180982820615,0.488
2.351178585697163,0.488
2.3531761885737112,0.487
2.3551737914502593,0.484
2.357171394326808,0.484
2.359168997203356,0.485
2.361166600079904,0.484
2.363164202956452,0.484
2.365161805833,0.486
2.3671594087095484,0.486
2.3691570115860965,0.482
2.3711546144626445,0.485
2.3731522173391926,0.489
2.375149820215741,0.488
2.377147423092289,0.487
2.379145025968837,0.486
2.381142628845385,0.484
2.3831402317219332,0.482
2.3851378345984817,0.482
2.3871354374750298,0.482
2.389133040351578,0.482
2.391130643228126,0.481
2.3931282461046743,0.479
2.3951258489812224,0.48
2.3971234518577704,0.48
2.3991210547343185,0.482
2.4011186576108665,0.481
2.403116260487415,0.479
2.405113863363963,0.478
2.407111466240511,0.479
2.409109069117059,0.48
2.4111066719936076,0.478
2.4131042748701557,0.476
2.4151018777467037,0.478
2.4170994806232518,0.479
2.4190970834998,0.477
2.4210946863763483,0.479
2.4230922892528963,0.481
2.4250898921294444,0.481
2.4270874950059924,0.481
2.429085097882541,0.482
2.431082700759089,0.483
2.433080303635637,0.483
2.435077906512185,0.481
2.437075509388733,0.482
2.4390731122652816,0.482
2.4410707151418296,0.482
2.4430683180183776,0.482
2.4450659208949257,0.482
2.447063523771474,0.481
2.4490611266480222,0.483
2.4510587295245703,0.483
2.4530563324011183,0.484
2.4550539352776664,0.484
2.457051538154215,0.482
2.459049141030763,0.482
2.461046743907311,0.482
2.463044346783859,0.486
2.4650419496604075,0.488
2.4670395525369555,0.485
2.4690371554135035,0.485
2.4710347582900516,0.488
2.4730323611665996,0.487
2.475029964043148,0.486
2.477027566919696,0.486
2.479025169796244,0.487
2.4810227726727923,0.487
2.4830203755493407,0.486
2.485017978425889,0.487
2.487015581302437,0.487
2.489013184178985,0.488
2.491010787055533,0.49
2.4930083899320814,0.489
2.4950059928086294,0.49
2.4970035956851775,0.489
2.4990011985617255,0.489
2.500998801438274,0.488
2.502996404314822,0.488
2.50499400719137,0.491
2.506991610067918,0.493
2.508989212944466,0.494
2.5109868158210147,0.492
2.5129844186975627,0.494
2.5149820215741108,0.494
2.516979624450659,0.492
2.5189772273272073,0.494
2.5209748302037553,0.492
2.5229724330803034,0.49
2.5249700359568514,0.49
2.5269676388333995,0.491
2.528965241709948,0.492
2.530962844586496,0.492
2.532960447463044,0.493
2.534958050339592,0.491
2.5369556532161406,0.492
2.5389532560926886,0.491
2.5409508589692367,0.489
2.5429484618457847,0.491
2.5449460647223328,0.491
2.5469436675988812,0.491
2.5489412704754293,0.49
2.5509388733519773,0.49
2.5529364762285254,0.49
2.554934079105074,0.489
2.556931681981622,0.49
2.55892928485817,0.489
2.560926887734718,0.49
2.562924490611266,0.49
2.5649220934878145,0.489
2.5669196963643626,0.49
2.5689172992409106,0.489
2.5709149021174587,0.486
2.572912504994007,0.485
2.574910107870555,0.487
2.5769077107471032,0.486
2.5789053136236513,0.483
2.5809029165001993,0.484
2.582900519376748,0.487
2.584898122253296,0.49
2.586895725129844,0.491
2.588893328006392,0.489
2.5908909308829404,0.487
2.5928885337594885,0.488
2.5948861366360365,0.487
2.5968837395125846,0.489
2.5988813423891326,0.489
2.600878945265681,0.485
2.602876548142229,0.485
2.604874151018777,0.484
2.606871753895325,0.483
2.6088693567718737,0.482
2.6108669596484217,0.481
2.61286456252497,0.48
2.614862165401518,0.479
2.616859768278066,0.479
2.6188573711546144,0.479
2.6208549740311624,0.479
2.6228525769077105,0.477
2.6248501797842585,0.481
2.626847782660807,0.479
2.628845385537355,0.476
2.630842988413903,0.478
2.632840591290451,0.478
2.634838194166999,0.477
2.6368357970435476,0.476
2.6388333999200957,0.475
2.6408310027966437,0.475
2.6428286056731918,0.474
2.6448262085497403,0.472
2.6468238114262883,0.471
2.6488214143028364,0.468
2.6508190171793844,0.466
2.6528166200559324,0.467
2.654814222932481,0.465
2.656811825809029,0.463
2.658809428685577,0.464
2.660807031562125,0.466
2.662804634438673,0.468
2.6648022373152216,0.472
2.6667998401917696,0.471
2.6687974430683177,0.468
2.6707950459448657,0.468
2.672792648821414,0.466
2.6747902516979623,0.465
2.6767878545745103,0.464
2.6787854574510583,0.465
2.6807830603276064,0.465
2.682780663204155,0.464
2.684778266080703,0.464
2.686775868957251,0.465
2.688773471833799,0.463
2.6907710747103475,0.462
2.6927686775868955,0.463
2.6947662804634436,0.462
2.6967638833399916,0.463
2.6987614862165397,0.463
2.700759089093088,0.462
2.702756691969636,0.461
2.7047542948461842,0.46
2.7067518977227323,0.461
2.7087495005992808,0.46
2.710747103475829,0.459
2.712744706352377,0.461
2.714742309228925,0.458
2.716739912105473,0.456
2.7187375149820214,0.456
2.7207351178585695,0.456
2.7227327207351175,0.455
2.7247303236116656,0.452
2.726727926488214,0.451
2.728725529364762,0.451
2.73072313224131,0.452
2.732720735117858,0.455
2.7347183379944062,0.455
2.7367159408709547,0.452
2.7387135437475028,0.451
2.740711146624051,0.453
2.742708749500599,0.455
2.7447063523771473,0.454
2.7467039552536954,0.452
2.7487015581302434,0.452
2.7506991610067915,0.451
2.7526967638833395,0.45
2.754694366759888,0.453
2.756691969636436,0.453
2.758689572512984,0.452
2.760687175389532,0.45
2.7626847782660806,0.448
2.7646823811426287,0.448
2.7666799840191767,0.448
2.7686775868957247,0.447
2.770675189772273,0.447
2.7726727926488213,0.449
2.7746703955253693,0.447
2.7766679984019174,0.447
2.7786656012784654,0.446
2.780663204155014,0.447
2.782660807031562,0.445
2.78465840990811,0.444
2.786656012784658,0.445
2.788653615661206,0.445
2.7906512185377546,0.446
2.7926488214143026,0.445
2.7946464242908506,0.445
2.7966440271673987,0.445
2.798641630043947,0.445
2.800639232920495,0.445
2.8026368357970433,0.443
2.8046344386735913,0.442
2.8066320415501393,0.44
2.808629644426688,0.442
2.810627247303236,0.443
2.812624850179784,0.441
2.814622453056332,0.443
2.8166200559328805,0.443
2.8186176588094285,0.441
2.8206152616859765,0.441
2.8226128645625246,0.441
2.8246104674390726,0.441
2.826608070315621,0.442
2.828605673192169,0.444
2.830603276068717,0.443
2.8326008789452652,0.442
2.8345984818218137,0.442
2.8365960846983618,0.439
2.83859368757491,0.44
2.840591290451458,0.442
2.842588893328006,0.44
2.8445864962045544,0.438
2.8465840990811024,0.44
2.8485817019576505,0.441
2.8505793048341985,0.44
2.852576907710747,0.44
2.854574510587295,0.441
2.856572113463843,0.439
2.858569716340391,0.436
2.860567319216939,0.437
2.8625649220934877,0.438
2.8645625249700357,0.439
2.8665601278465838,0.44
2.868557730723132,0.441
2.8705553335996803,0.44
2.8725529364762283,0.44
2.8745505393527764,0.44
2.8765481422293244,0.438
2.8785457451058725,0.44
2.880543347982421,0.439
2.882540950858969,0.438
2.884538553735517,0.436
2.886536156612065,0.433
2.8885337594886136,0.434
2.8905313623651616,0.434
2.8925289652417097,0.437
2.8945265681182577,0.436
2.8965241709948057,0.435
2.8985217738713542,0.435
2.9005193767479023,0.434
2.9025169796244503,0.435
2.9045145825009984,0.434
2.906512185377547,0.434
2.908509788254095,0.434
2.910507391130643,0.434
2.912504994007191,0.436
2.914502596883739,0.434
2.9165001997602875,0.434
2.9184978026368356,0.435
2.9204954055133836,0.433
2.9224930083899316,0.432
2.92449061126648,0.432
2.926488214143028,0.431
2.928485817019576,0.43
2.9304834198961243,0.43
2.9324810227726723,0.431
2.934478625649221,0.43
2.936476228525769,0.431
2.938473831402317,0.433
2.940471434278865,0.431
2.9424690371554134,0.43
2.9444666400319615,0.432
2.9464642429085095,0.433
2.9484618457850575,0.431
2.9504594486616056,0.429
2.952457051538154,0.429
2.954454654414702,0.428
2.95645225729125,0.426
2.958449860167798,0.427
2.9604474630443467,0.427
2.9624450659208947,0.427
2.964442668797443,0.425
2.966440271673991,0.424
2.968437874550539,0.425
2.9704354774270874,0.425
2.9724330803036354,0.425
2.9744306831801834,0.424
2.9764282860567315,0.426
2.97842588893328,0.426
2.980423491809828,0.424
2.982421094686376,0.425
2.984418697562924,0.424
2.986416300439472,0.427
2.9884139033160206,0.428
2.9904115061925687,0.427
2.9924091090691167,0.426
2.9944067119456648,0.426
2.9964043148222133,0.427
2.9984019176987613,0.426
3.0003995205753093,0.427
3.0023971234518574,0.425
3.0043947263284054,0.425
3.006392329204954,0.425
3.008389932081502,0.425
3.01038753495805,0.425
3.012385137834598,0.425
3.0143827407111465,0.427
3.0163803435876946,0.429
3.0183779464642426,0.428
3.0203755493407907,0.427
3.0223731522173387,0.428
3.024370755093887,0.428
3.0263683579704352,0.43
3.0283659608469833,0.432
3.0303635637235313,0.431
3.03236116660008,0.43
3.034358769476628,0.431
3.036356372353176,0.435
3.038353975229724,0.441
3.040351578106272,0.443
3.0423491809828205,0.441
3.0443467838593685,0.443
3.0463443867359166,0.445
3.0483419896124646,0.446
3.050339592489013,0.448
3.052337195365561,0.45
3.054334798242109,0.453
3.0563324011186572,0.454
3.0583300039952053,0.452
3.0603276068717538,0.458
3.062325209748302,0.459
3.06432281262485,0.459
3.066320415501398,0.458
3.068318018377946,0.458
3.0703156212544944,0.459
3.0723132241310425,0.457
3.0743108270075905,0.461
3.0763084298841386,0.463
3.078306032760687,0.464
3.080303635637235,0.464
3.082301238513783,0.463
3.084298841390331,0.461
3.086296444266879,0.463
3.0882940471434277,0.464
3.0902916500199757,0.461
3.092289252896524,0.461
3.094286855773072,0.462
3.0962844586496203,0.466
3.0982820615261684,0.469
3.1002796644027164,0.472
3.1022772672792644,0.472
3.1042748701558125,0.47
3.106272473032361,0.469
3.108270075908909,0.467
3.110267678785457,0.465
3.112265281662005,0.467
3.1142628845385536,0.469
3.1162604874151016,0.469
3.1182580902916497,0.47
3.1202556931681977,0.47
3.1222532960447458,0.468
3.1242508989212943,0.465
3.1262485017978423,0.464
3.1282461046743903,0.463
3.1302437075509384,0.459
3.132241310427487,0.458
3.134238913304035,0.457
3.136236516180583,0.456
3.138234119057131,0.452
3.140231721933679,0.449
3.1422293248102275,0.446
3.1442269276867756,0.444
3.1462245305633236,0.443
3.1482221334398717,0.439
3.15021973631642,0.44
3.152217339192968,0.441
3.1542149420695162,0.444
3.1562125449460643,0.449
3.1582101478226123,0.45
3.160207750699161,0.45
3.162205353575709,0.451
3.164202956452257,0.454
3.166200559328805,0.459
3.1681981622053534,0.463
3.1701957650819015,0.464
3.1721933679584495,0.465
3.1741909708349976,0.465
3.1761885737115456,0.463
3.178186176588094,0.464
3.180183779464642,0.469
3.18218138234119,0.471
3.1841789852177382,0.471
3.1861765880942867,0.472
3.1881741909708348,0.471
3.190171793847383,0.471
3.192169396723931,0.474
3.194166999600479,0.473
3.1961646024770274,0.472
3.1981622053535754,0.473
3.2001598082301235,0.473
3.2021574111066715,0.469
3.20415501398322,0.465
3.206152616859768,0.463
3.208150219736316,0.46
3.210147822612864,0.457
3.212145425489412,0.455
3.2141430283659607,0.453
3.2161406312425087,0.45
3.2181382341190568,0.444
3.220135836995605,0.439
3.2221334398721533,0.439
3.2241310427487013,0.441
3.2261286456252494,0.439
3.2281262485017974,0.438
3.2301238513783455,0.436
3.232121454254894,0.434
3.234119057131442,0.434
3.23611666000799,0.43
3.238114262884538,0.426
3.2401118657610866,0.426
3.2421094686376346,0.421
3.2441070715141826,0.418
3.2461046743907307,0.416
3.2481022772672787,0.412
3.2500998801438272,0.411
3.2520974830203753,0.408
3.2540950858969233,0.405
3.2560926887734714,0.402
3.25809029165002,0.402
3.260087894526568,0.403
3.262085497403116,0.403
3.264083100279664,0.402
3.266080703156212,0.4
3.2680783060327605,0.398
3.2700759089093085,0.395
3.2720735117858566,0.397
3.2740711146624046,0.398
3.276068717538953,0.397
3.278066320415501,0.398
3.280063923292049,0.397
3.2820615261685973,0.394
3.2840591290451453,0.393
3.286056731921694,0.394
3.288054334798242,0.392
3.29005193767479,0.39
3.292049540551338,0.39
3.2940471434278864,0.39
3.2960447463044344,0.393
3.2980423491809825,0.393
3.3000399520575305,0.392
3.3020375549340786,0.395
3.304035157810627,0.395
3.306032760687175,0.394
3.308030363563723,0.396
3.310027966440271,0.396
3.3120255693168197,0.398
3.3140231721933677,0.399
3.3160207750699158,0.399
3.318018377946464,0.404
3.320015980823012,0.404
3.3220135836995603,0.403
3.3240111865761084,0.403
3.3260087894526564,0.404
3.3280063923292045,0.409
3.330003995205753,0.413
3.332001598082301,0.42
3.333999200958849,0.432
3.335996803835397,0.449
3.337994406711945,0.472
3.3399920095884936,0.496
3.3419896124650417,0.516
3.3439872153415897,0.534
3.3459848182181378,0.55
3.3479824210946862,0.569
3.3499800239712343,0.594
3.3519776268477823,0.631
3.3539752297243304,0.675
3.3559728326008784,0.711
3.357970435477427,0.75
3.359968038353975,0.802
3.361965641230523,0.864
3.363963244107071,0.91
3.3659608469836195,0.943
3.3679584498601676,0.98
3.3699560527367156,1.031
3.3719536556132637,1.101
3.3739512584898117,1.185
3.37594886136636,1.256
3.3779464642429082,1.298
3.3799440671194563,1.343
3.3819416699960043,1.375
3.383939272872553,1.393
3.385936875749101,1.419
3.387934478625649,1.43
3.389932081502197,1.443
3.391929684378745,1.468
3.3939272872552935,1.477
3.3959248901318415,1.479
3.3979224930083896,1.47
3.3999200958849376,1.419
3.401917698761486,1.329
3.403915301638034,1.223
3.405912904514582,1.12
3.40791050739113,0.993
3.4099081102676783,0.842
3.4119057131442267,0.697
3.413903316020775,0.544
3.415900918897323,0.373
3.417898521773871,0.188
3.4198961246504194,0.007
3.4218937275269674,-0.169
3.4238913304035155,-0.348
3.4258889332800635,-0.528
3.4278865361566115,-0.708
3.42988413903316,-0.861
3.431881741909708,-0.986
3.433879344786256,-1.067
3.435876947662804,-1.071
3.4378745505393526,-1.037
3.4398721534159007,-0.992
3.4418697562924487,-0.94
3.4438673591689968,-0.875
3.445864962045545,-0.805
3.4478625649220933,-0.738
3.4498601677986414,-0.674
3.4518577706751894,-0.623
3.4538553735517374,-0.559
3.455852976428286,-0.484
3.457850579304834,-0.412
3.459848182181382,-0.344
3.46184578505793,-0.272
3.463843387934478,-0.201
3.4658409908110266,-0.135
3.4678385936875746,-0.077
3.4698361965641227,-0.034
3.4718337994406707,0.011
3.473831402317219,0.053
3.4758290051937673,0.091
3.4778266080703153,0.131
3.4798242109468633,0.168
3.4818218138234114,0.201
3.48381941669996,0.232
3.485817019576508,0.265
3.487814622453056,0.293
3.489812225329604,0.312
3.491809828206152,0.334
3.4938074310827005,0.349
3.4958050339592486,0.362
3.4978026368357966,0.376
3.4998002397123447,0.384
3.501797842588893,0.39
3.503795445465441,0.395
3.5057930483419892,0.399
3.5077906512185373,0.403
3.5097882540950853,0.408
3.511785856971634,0.41
3.513783459848182,0.416
3.51578106272473,0.419
3.517778665601278,0.42
3.5197762684778264,0.426
3.5217738713543745,0.428
3.5237714742309225,0.433
3.5257690771074706,0.436
3.5277666799840186,0.437
3.529764282860567,0.44
3.531761885737115,0.443
3.533759488613663,0.447
3.5357570914902112,0.449
3.5377546943667597,0.451
3.5397522972433078,0.454
3.541749900119856,0.459
3.543747502996404,0.46
3.545745105872952,0.461
3.5477427087495004,0.463
3.5497403116260484,0.464
3.5517379145025965,0.464
3.5537355173791445,0.465
3.555733120255693,0.468
3.557730723132241,0.47
3.559728326008789,0.473
3.561725928885337,0.471
3.563723531761885,0.472
3.5657211346384337,0.474
3.5677187375149817,0.474
3.5697163403915297,0.476
3.571713943268078,0.478
3.5737115461446263,0.48
3.5757091490211743,0.48
3.5777067518977224,0.481
3.5797043547742704,0.482
3.5817019576508184,0.485
3.583699560527367,0.487
3.585697163403915,0.487
3.587694766280463,0.488
3.589692369157011,0.489
3.5916899720335596,0.491
3.5936875749101076,0.492
3.5956851777866556,0.495
3.5976827806632037,0.493
3.5996803835397517,0.493
3.6016779864163,0.497
3.6036755892928483,0.497
3.6056731921693963,0.496
3.6076707950459443,0.497
3.609668397922493,0.499
3.611666000799041,0.501
3.613663603675589,0.5
3.615661206552137,0.503
3.617658809428685,0.505
3.6196564123052335,0.503
3.6216540151817815,0.506
3.6236516180583296,0.506
3.6256492209348776,0.509
3.627646823811426,0.511
3.629644426687974,0.509
3.631642029564522,0.509
3.6336396324410702,0.511
3.6356372353176183,0.512
3.6376348381941668,0.515
3.639632441070715,0.516
3.641630043947263,0.516
3.643627646823811,0.516
3.6456252497003594,0.514
3.6476228525769074,0.516
3.6496204554534555,0.518
3.6516180583300035,0.518
3.6536156612065516,0.521
3.6556132640831,0.521
3.657610866959648,0.521
3.659608469836196,0.524
3.661606072712744,0.526
3.6636036755892927,0.529
3.6656012784658407,0.529
3.6675988813423888,0.531
3.669596484218937,0.532
3.671594087095485,0.534
3.6735916899720333,0.534
3.6755892928485814,0.536
3.6775868957251294,0.538
3.6795844986016775,0.539
3.681582101478226,0.542
3.683579704354774,0.543
3.685577307231322,0.543
3.68757491010787,0.547
3.689572512984418,0.548
3.6915701158609666,0.549
3.6935677187375147,0.551
3.6955653216140627,0.549
3.6975629244906107,0.55
3.6995605273671592,0.552
3.7015581302437073,0.555
3.7035557331202553,0.559
3.7055533359968034,0.559
3.7075509388733514,0.56
3.7095485417499,0.562
3.711546144626448,0.564
3.713543747502996,0.565
3.715541350379544,0.569
3.7175389532560925,0.572
3.7195365561326406,0.574
3.7215341590091886,0.576
3.7235317618857366,0.578
3.7255293647622847,0.58
3.727526967638833,0.58
3.729524570515381,0.582
3.7315221733919293,0.585
3.7335197762684773,0.587
3.735517379145026,0.59
3.737514982021574,0.592
3.739512584898122,0.594
3.74151018777467,0.596
3.743507790651218,0.6
3.7455053935277665,0.602
3.7475029964043145,0.605
3.7495005992808625,0.608
3.7514982021574106,0.61
3.753495805033959,0.613
3.755493407910507,0.617
3.757491010787055,0.622
3.759488613663603,0.625
3.7614862165401513,0.627
3.7634838194166997,0.628
3.765481422293248,0.633
3.767479025169796,0.636
3.769476628046344,0.638
3.7714742309228924,0.644
3.7734718337994404,0.645
3.7754694366759884,0.649
3.7774670395525365,0.652
3.7794646424290845,0.657
3.781462245305633,0.662
3.783459848182181,0.667
3.785457451058729,0.672
3.787455053935277,0.675
3.7894526568118256,0.68
3.7914502596883737,0.683
3.7934478625649217,0.687
3.7954454654414698,0.692
3.797443068318018,0.696
3.7994406711945663,0.701
3.8014382740711143,0.706
3.8034358769476624,0.709
3.8054334798242104,0.713
3.807431082700759,0.72
3.809428685577307,0.725
3.811426288453855,0.73
3.813423891330403,0.735
3.815421494206951,0.74
3.8174190970834996,0.746
3.8194166999600476,0.75
3.8214143028365957,0.754
3.8234119057131437,0.759
3.825409508589692,0.768
3.8274071114662402,0.773
3.8294047143427883,0.778
3.8314023172193363,0.783
3.8333999200958844,0.786
3.835397522972433,0.792
3.837395125848981,0.795
3.839392728725529,0.801
3.841390331602077,0.806
3.8433879344786255,0.809
3.8453855373551735,0.814
3.8473831402317216,0.818
3.8493807431082696,0.825
3.8513783459848177,0.83
3.853375948861366,0.835
3.855373551737914,0.841
3.8573711546144622,0.845
3.8593687574910103,0.852
3.8613663603675588,0.858
3.863363963244107,0.863
3.865361566120655,0.867
3.867359168997203,0.872
3.869356771873751,0.877
3.8713543747502994,0.88
3.8733519776268475,0.884
3.8753495805033955,0.888
3.8773471833799436,0.893
3.879344786256492,0.898
3.88134238913304,0.9
3.883339992009588,0.902
3.885337594886136,0.904
3.887335197762684,0.906
3.8893328006392327,0.908
3.8913304035157807,0.911
3.893328006392329,0.913
3.895325609268877,0.914
3.897323212145425,0.915
3.8993208150219734,0.916
3.9013184178985214,0.919
3.9033160207750695,0.921
3.9053136236516175,0.925
3.907311226528166,0.927
3.909308829404714,0.926
3.911306432281262,0.925
3.91330403515781,0.927
3.915301638034358,0.928
3.9172992409109066,0.926
3.9192968437874547,0.925
3.9212944466640027,0.924
3.9232920495405508,0.921
3.9252896524170993,0.916
3.9272872552936473,0.918
3.9292848581701953,0.917
3.9312824610467434,0.914
3.9332800639232914,0.913
3.93527766679984,0.91
3.937275269676388,0.908
3.939272872552936,0.907
3.941270475429484,0.905
3.9432680783060325,0.901
3.9452656811825806,0.898
3.9472632840591286,0.895
3.9492608869356767,0.889
3.9512584898122247,0.887
3.953256092688773,0.882
3.9552536955653212,0.877
3.9572512984418693,0.874
3.9592489013184173,0.868
3.961246504194966,0.863
3.963244107071514,0.855
3.965241709948062,0.85
3.96723931282461,0.845
3.969236915701158,0.835
3.9712345185777065,0.829
3.9732321214542545,0.823
3.9752297243308026,0.815
3.9772273272073506,0.805
3.979224930083899,0.798
3.981222532960447,0.791
3.983220135836995,0.783
3.9852177387135432,0.774
3.9872153415900913,0.765
3.9892129444666398,0.757
3.991210547343188,0.747
3.993208150219736,0.736
3.995205753096284,0.727
3.9972033559728324,0.72
3.9992009588493804,0.712
4.0011985617259285,0.702
4.0031961646024765,0.691
4.005193767479025,0.681
4.007191370355573,0.675
4.009188973232121,0.666
4.01118657610867,0.661
4.013184178985218,0.651
4.015181781861766,0.642
4.017179384738314,0.636
4.019176987614862,0.629
4.02117459049141,0.624
4.023172193367958,0.618
4.025169796244506,0.613
4.027167399121054,0.604
4.029165001997603,0.597
4.031162604874151,0.593
4.033160207750699,0.586
4.035157810627247,0.581
4.037155413503795,0.575
4.039153016380343,0.569
4.041150619256891,0.562
4.043148222133439,0.558
4.045145825009987,0.553
4.047143427886536,0.548
4.049141030763084,0.543
4.051138633639632,0.54
4.05313623651618,0.537
4.055133839392728,0.53
4.057131442269276,0.526
4.059129045145824,0.523
4.061126648022372,0.522
4.0631242508989205,0.521
4.065121853775469,0.517
4.0671194566520175,0.514
4.0691170595285655,0.509
4.0711146624051135,0.506
4.073112265281662,0.503
4.07510986815821,0.5
4.077107471034758,0.499
4.079105073911306,0.495
4.081102676787854,0.496
4.083100279664403,0.492
4.085097882540951,0.491
4.087095485417499,0.49
4.089093088294047,0.484
4.091090691170595,0.484
4.093088294047143,0.483
4.095085896923691,0.483
4.097083499800239,0.481
4.099081102676787,0.48
4.101078705553336,0.48
4.103076308429884,0.479
4.105073911306432,0.482
4.10707151418298,0.481
4.109069117059528,0.48
4.111066719936076,0.479
4.113064322812624,0.479
4.115061925689172,0.48
4.11705952856572,0.479
4.119057131442269,0.477
4.121054734318817,0.474
4.123052337195365,0.474
4.125049940071913,0.472
4.127047542948461,0.472
4.1290451458250095,0.471
4.1310427487015575,0.469
4.133040351578106,0.469
4.135037954454654,0.469
4.1370355573312025,0.467
4.139033160207751,0.465
4.141030763084299,0.465
4.143028365960847,0.466
4.145025968837395,0.471
4.147023571713943,0.468
4.149021174590491,0.463
4.151018777467039,0.463
4.153016380343587,0.463
4.155013983220136,0.464
4.157011586096684,0.463
4.159009188973232,0.465
4.16100679184978,0.466
4.163004394726328,0.461
4.165001997602876,0.462
4.166999600479424,0.465
4.168997203355972,0.461
4.17099480623252,0.461
4.172992409109069,0.46
4.174990011985617,0.461
4.176987614862165,0.461
4.178985217738713,0.46
4.180982820615261,0.463
4.182980423491809,0.463
4.184978026368357,0.461
4.186975629244905,0.461
4.1889732321214534,0.461
4.190970834998002,0.461
4.19296843787455,0.462
4.1949660407510985,0.461
4.1969636436276465,0.46
4.1989612465041946,0.461
4.200958849380743,0.461
4.202956452257291,0.459
4.204954055133839,0.459
4.206951658010387,0.459
4.208949260886936,0.457
4.210946863763484,0.456
4.212944466640032,0.458
4.21494206951658,0.457
4.216939672393128,0.457
4.218937275269676,0.459
4.220934878146224,0.461
4.222932481022772,0.462
4.22493008389932,0.461
4.226927686775869,0.462
4.228925289652417,0.463
4.230922892528965,0.464
4.232920495405513,0.465
4.234918098282061,0.466
4.236915701158609,0.465
4.238913304035157,0.466
4.240910906911705,0.465
4.242908509788253,0.465
4.244906112664802,0.467
4.24690371554135,0.466
4.248901318417898,0.465
4.250898921294446,0.465
4.252896524170994,0.466
4.254894127047542,0.464
4.2568917299240905,0.465
4.2588893328006385,0.465
4.260886935677187,0.465
4.2628845385537355,0.466
4.2648821414302835,0.466
4.266879744306832,0.468
4.26887734718338,0.469
4.270874950059928,0.469
4.272872552936476,0.468
4.274870155813024,0.469
4.276867758689572,0.469
4.27886536156612,0.469
4.280862964442669,0.469
4.282860567319217,0.469
4.284858170195765,0.467
4.286855773072313,0.467
4.288853375948861,0.47
4.290850978825409,0.471
4.292848581701957,0.471
4.294846184578505,0.471
4.296843787455053,0.47
4.298841390331602,0.471
4.30083899320815,0.474
4.302836596084698,0.474
4.304834198961246,0.473
4.306831801837794,0.473
4.308829404714342,0.473
4.31082700759089,0.474
4.312824610467438,0.477
4.314822213343986,0.477
4.316819816220535,0.476
4.318817419097083,0.476
4.320815021973631,0.476
4.3228126248501795,0.475
4.3248102277267275,0.474
4.326807830603276,0.475
4.328805433479824,0.475
4.330803036356372,0.474
4.33280063923292,0.472
4.334798242109469,0.471
4.336795844986017,0.471
4.338793447862565,0.471
4.340791050739113,0.472
4.342788653615661,0.473
4.344786256492209,0.477
4.346783859368757,0.477
4.348781462245305,0.473
4.350779065121853,0.472
4.352776667998402,0.474
4.35477427087495,0.475
4.356771873751498,0.474
4.358769476628046,0.475
4.360767079504594,0.473
4.362764682381142,0.472
4.36476228525769,0.471
4.366759888134238,0.472
4.368757491010786,0.474
4.370755093887335,0.469
4.372752696763883,0.467
4.374750299640431,0.469
4.376747902516979,0.469
4.378745505393527,0.468
4.380743108270075,0.47
4.3827407111466234,0.47
4.3847383140231715,0.47
4.3867359168997195,0.472
4.3887335197762685,0.471
4.3907311226528165,0.47
4.3927287255293646,0.469
4.394726328405913,0.469
4.396723931282461,0.469
4.398721534159009,0.47
4.400719137035557,0.469
4.402716739912105,0.467
4.404714342788653,0.465
4.406711945665202,0.465
4.40870954854175,0.465
4.410707151418298,0.465
4.412704754294846,0.463
4.414702357171394,0.461
4.416699960047942,0.463
4.41869756292449,0.462
4.420695165801038,0.461
4.422692768677586,0.461
4.424690371554135,0.46
4.426687974430683,0.459
4.428685577307231,0.46
4.430683180183779,0.458
4.432680783060327,0.458
4.434678385936875,0.462
4.436675988813423,0.457
4.438673591689971,0.456
4.440671194566519,0.458
4.442668797443068,0.456
4.444666400319616,0.455
4.446664003196164,0.455
4.448661606072712,0.454
4.4506592089492605,0.454
4.4526568118258085,0.454
4.454654414702357,0.452
4.456652017578905,0.451
4.458649620455453,0.45
4.460647223332002,0.449
4.46264482620855,0.449
4.464642429085098,0.449
4.466640031961646,0.448
4.468637634838194,0.448
4.470635237714742,0.446
4.47263284059129,0.446
4.474630443467838,0.446
4.476628046344386,0.446
4.478625649220935,0.448
4.480623252097483,0.447
4.482620854974031,0.443
4.484618457850579,0.445
4.486616060727127,0.445
4.488613663603675,0.443
4.490611266480223,0.444
4.492608869356771,0.444
4.494606472233319,0.442
4.496604075109868,0.442
4.498601677986416,0.441
4.500599280862964,0.442
4.502596883739512,0.443
4.50459448661606,0.443
4.506592089492608,0.444
4.508589692369156,0.444
4.5105872952457045,0.443
4.5125848981222525,0.441
4.5145825009988005,0.443
4.5165801038753495,0.444
4.5185777067518975,0.441
4.520575309628446,0.441
4.522572912504994,0.437
4.524570515381542,0.434
4.52656811825809,0.437
4.528565721134638,0.437
4.530563324011186,0.437
4.532560926887734,0.437
4.534558529764283,0.438
4.536556132640831,0.438
4.538553735517379,0.434
4.540551338393927,0.435
4.542548941270475,0.438
4.544546544147023,0.439
4.546544147023571,0.436
4.548541749900119,0.436
4.550539352776667,0.435
4.552536955653216,0.433
4.554534558529764,0.434
4.556532161406312,0.432
4.55852976428286,0.433
4.560527367159408,0.433
4.562524970035956,0.43
4.564522572912504,0.43
4.566520175789052,0.431
4.5685177786656,0.429
4.570515381542149,0.43
4.572512984418697,0.434
4.574510587295245,0.431
4.5765081901717934,0.427
4.5785057930483415,0.429
4.5805033959248895,0.431
4.582500998801438,0.431
4.584498601677986,0.43
4.586496204554534,0.429
4.588493807431083,0.428
4.590491410307631,0.43
4.592489013184179,0.429
4.594486616060727,0.429
4.596484218937275,0.428
4.598481821813823,0.426
4.600479424690371,0.424
4.602477027566919,0.423
4.604474630443467,0.424
4.606472233320016,0.424
4.608469836196564,0.423
4.610467439073112,0.423
4.61246504194966,0.421
4.614462644826208,0.421
4.616460247702756,0.422
4.618457850579304,0.421
4.620455453455852,0.42
4.6224530563324,0.42
4.624450659208949,0.419
4.626448262085497,0.419
4.628445864962045,0.417
4.630443467838593,0.419
4.632441070715141,0.42
4.634438673591689,0.418
4.636436276468237,0.419
4.6384338793447855,0.417
4.6404314822213335,0.417
4.642429085097882,0.414
4.6444266879744305,0.414
4.6464242908509785,0.415
4.648421893727527,0.416
4.650419496604075,0.419
4.652417099480623,0.419
4.654414702357171,0.418
4.656412305233719,0.416
4.658409908110267,0.416
4.660407510986816,0.417
4.662405113863364,0.418
4.664402716739912,0.42
4.66640031961646,0.419
4.668397922493008,0.418
4.670395525369556,0.421
4.672393128246104,0.42
4.674390731122652,0.418
4.6763883339992,0.418
4.678385936875749,0.417
4.680383539752297,0.416
4.682381142628845,0.415
4.684378745505393,0.414
4.686376348381941,0.414
4.688373951258489,0.414
4.690371554135037,0.413
4.692369157011585,0.414
4.694366759888133,0.414
4.696364362764682,0.412
4.69836196564123,0.415
4.700359568517778,0.415
4.702357171394326,0.415
4.7043547742708745,0.42
4.7063523771474225,0.42
4.7083499800239705,0.421
4.710347582900519,0.419
4.712345185777067,0.418
4.714342788653616,0.419
4.716340391530164,0.418
4.718337994406712,0.416
4.72033559728326,0.413
4.722333200159808,0.413
4.724330803036356,0.414
4.726328405912904,0.415
4.728326008789452,0.415
4.730323611666,0.414
4.732321214542549,0.413
4.734318817419097,0.414
4.736316420295645,0.413
4.738314023172193,0.416
4.740311626048741,0.416
4.742309228925289,0.416
4.744306831801837,0.417
4.746304434678385,0.416
4.748302037554933,0.417
4.750299640431482,0.417
4.75229724330803,0.415
4.754294846184578,0.416
4.756292449061126,0.417
4.758290051937674,0.418
4.760287654814222,0.419
4.76228525769077,0.416
4.764282860567318,0.415
4.7662804634438665,0.416
4.768278066320415,0.416
4.770275669196963,0.416
4.7722732720735115,0.418
4.7742708749500595,0.417
4.776268477826608,0.415
4.778266080703156,0.415
4.780263683579704,0.416
4.782261286456252,0.416
4.7842588893328,0.415
4.786256492209349,0.417
4.788254095085897,0.417
4.790251697962445,0.415
4.792249300838993,0.414
4.794246903715541,0.415
4.796244506592089,0.413
4.798242109468637,0.412
4.800239712345185,0.413
4.802237315221733,0.409
4.804234918098282,0.409
4.80623252097483,0.41
4.808230123851378,0.411
4.810227726727926,0.41
4.812225329604474,0.41
4.814222932481022,0.41
4.81622053535757,0.41
4.818218138234118,0.41
4.820215741110666,0.41
4.822213343987215,0.414
4.824210946863763,0.415
4.826208549740311,0.412
4.828206152616859,0.414
4.830203755493407,0.413
4.8322013583699555,0.41
4.8341989612465035,0.41
4.8361965641230515,0.409
4.8381941669996,0.409
4.8401917698761485,0.409
4.842189372752697,0.41
4.844186975629245,0.409
4.846184578505793,0.41
4.848182181382341,0.412
4.850179784258889,0.413
4.852177387135437,0.414
4.854174990011985,0.415
4.856172592888533,0.413
4.858170195765082,0.415
4.86016779864163,0.419
4.862165401518178,0.418
4.864163004394726,0.42
4.866160607271274,0.422
4.868158210147822,0.424
4.87015581302437,0.429
4.872153415900918,0.43
4.874151018777466,0.431
4.876148621654015,0.434
4.878146224530563,0.436
4.880143827407111,0.439
4.882141430283659,0.438
4.884139033160207,0.44
4.886136636036755,0.444
4.888134238913303,0.445
4.890131841789851,0.444
4.892129444666399,0.444
4.894127047542948,0.443
4.896124650419496,0.444
4.8981222532960444,0.444
4.9001198561725925,0.446
4.9021174590491405,0.449
4.904115061925689,0.446
4.906112664802237,0.447
4.908110267678785,0.449
4.910107870555333,0.447
4.912105473431882,0.448
4.91410307630843,0.449
4.916100679184978,0.445
4.918098282061526,0.445
4.920095884938074,0.448
4.922093487814622,0.451
4.92409109069117,0.453
4.926088693567718,0.454
4.928086296444266,0.452
4.930083899320815,0.449
4.932081502197363,0.449
4.934079105073911,0.448
4.936076707950459,0.448
4.938074310827007,0.449
4.940071913703555,0.451
4.942069516580103,0.458
4.944067119456651,0.459
4.946064722333199,0.455
4.948062325209748,0.454
4.950059928086296,0.453
4.952057530962844,0.452
4.954055133839392,0.446
4.95605273671594,0.447
4.958050339592488,0.446
4.9600479424690365,0.443
4.9620455453455845,0.441
4.9640431482221326,0.432
4.9660407510986815,0.43
4.9680383539752295,0.429
4.970035956851778,0.426
4.972033559728326,0.425
4.974031162604874,0.427
4.976028765481422,0.426
4.97802636835797,0.424
4.980023971234518,0.425
4.982021574111066,0.428
4.984019176987615,0.43
4.986016779864163,0.433
4.988014382740711,0.438
4.990011985617259,0.44
4.992009588493807,0.444
4.994007191370355,0.447
4.996004794246903,0.448
4.998002397123451,0.45
4.999999999999999,0.45
5.001997602876548,0.447
5.003995205753096,0.448
5.005992808629644,0.451
5.007990411506192,0.45
5.00998801438274,0.451
5.011985617259288,0.453
5.013983220135836,0.452
5.015980823012384,0.454
5.017978425888932,0.454
5.019976028765481,0.454
5.021973631642029,0.458
5.023971234518577,0.459
5.0259688373951255,0.46
5.0279664402716735,0.455
5.0299640431482215,0.448
5.03196164602477,0.445
5.033959248901318,0.442
5.035956851777866,0.439
5.037954454654415,0.437
5.039952057530963,0.434
5.041949660407511,0.43
5.043947263284059,0.427
5.045944866160607,0.425
5.047942469037155,0.426
5.049940071913703,0.423
5.051937674790251,0.42
5.053935277666799,0.419
5.055932880543348,0.416
5.057930483419896,0.414
5.059928086296444,0.41
5.061925689172992,0.409
5.06392329204954,0.411
5.065920894926088,0.409
5.067918497802636,0.405
5.069916100679184,0.404
5.071913703555732,0.398
5.073911306432281,0.395
5.075908909308829,0.392
5.077906512185377,0.389
5.079904115061925,0.388
5.081901717938473,0.383
5.083899320815021,0.379
5.085896923691569,0.378
5.0878945265681175,0.377
5.0898921294446655,0.377
5.0918897323212144,0.376
5.0938873351977625,0.372
5.0958849380743105,0.373
5.097882540950859,0.374
5.099880143827407,0.374
5.101877746703955,0.377
5.103875349580503,0.377
5.105872952457051,0.381
5.107870555333599,0.379
5.109868158210148,0.378
5.111865761086696,0.381
5.113863363963244,0.382
5.115860966839792,0.38
5.11785856971634,0.381
5.119856172592888,0.382
5.121853775469436,0.38
5.123851378345984,0.385
5.125848981222532,0.385
5.127846584099081,0.385
5.129844186975629,0.386
5.131841789852177,0.387
5.133839392728725,0.387
5.135836995605273,0.387
5.137834598481821,0.389
5.139832201358369,0.385
5.141829804234917,0.387
5.143827407111465,0.391
5.145825009988014,0.391
5.147822612864562,0.395
5.14982021574111,0.393
5.151817818617658,0.391
5.1538154214942065,0.397
5.1558130243707545,0.403
5.1578106272473025,0.412
5.159808230123851,0.43
5.161805833000399,0.455
5.163803435876948,0.478
5.165801038753496,0.5
5.167798641630044,0.52
5.169796244506592,0.542
5.17179384738314,0.562
5.173791450259688,0.587
5.175789053136236,0.623
5.177786656012784,0.663
5.179784258889332,0.704
5.181781861765881,0.747
5.183779464642429,0.796
5.185777067518977,0.855
5.187774670395525,0.908
5.189772273272073,0.944
5.191769876148621,0.978
5.193767479025169,1.022
5.195765081901717,1.082
5.197762684778265,1.159
5.199760287654814,1.23
5.201757890531362,1.276
5.20375549340791,1.321
5.205753096284458,1.368
5.207750699161006,1.394
5.209748302037554,1.419
5.211745904914102,1.437
5.21374350779065,1.437
5.2157411106671985,1.454
5.217738713543747,1.465
5.2197363164202955,1.456
5.2217339192968435,1.444
5.2237315221733915,1.399
5.22572912504994,1.313
5.227726727926488,1.198
5.229724330803036,1.083
5.231721933679584,0.957
5.233719536556132,0.801
5.235717139432681,0.649
5.237714742309229,0.5
5.239712345185777,0.336
5.241709948062325,0.15
5.243707550938873,-0.037
5.245705153815421,-0.202
5.247702756691969,-0.382
5.249700359568517,-0.567
5.251697962445065,-0.741
5.253695565321614,-0.903
5.255693168198162,-1.037
5.25769077107471,-1.125
5.259688373951258,-1.131
5.261685976827806,-1.097
5.263683579704354,-1.054
5.265681182580902,-0.997
5.26767878545745,-0.94
5.269676388333998,-0.872
5.271673991210547,-0.804
5.273671594087095,-0.753
5.275669196963643,-0.705
5.277666799840191,-0.641
5.279664402716739,-0.574
5.2816620055932875,-0.501
5.2836596084698355,-0.421
5.2856572113463836,-0.342
5.287654814222932,-0.267
5.2896524170994805,-0.199
5.291650019976029,-0.133
5.293647622852577,-0.077
5.295645225729125,-0.029
5.297642828605673,0.015
5.299640431482221,0.052
5.301638034358769,0.091
5.303635637235317,0.13
5.305633240111865,0.165
5.307630842988414,0.196
5.309628445864962,0.227
5.31162604874151,0.259
5.313623651618058,0.285
5.315621254494606,0.307
5.317618857371154,0.327
5.319616460247702,0.344
5.32161406312425,0.355
5.323611666000798,0.369
5.325609268877346,0.38
5.327606871753895,0.384
5.329604474630443,0.387
5.331602077506991,0.391
5.333599680383539,0.397
5.335597283260087,0.402
5.337594886136635,0.404
5.339592489013183,0.408
5.341590091889731,0.41
5.3435876947662795,0.416
5.345585297642828,0.421
5.3475829005193765,0.424
5.3495805033959245,0.426
5.3515781062724725,0.428
5.353575709149021,0.431
5.355573312025569,0.435
5.357570914902117,0.439
5.359568517778665,0.439
5.361566120655213,0.44
5.363563723531762,0.441
5.36556132640831,0.444
5.367558929284858,0.448
5.369556532161406,0.451
5.371554135037954,0.454
5.373551737914502,0.453
5.37554934079105,0.452
5.377546943667598,0.455
5.379544546544146,0.459
5.381542149420695,0.459
5.383539752297243,0.46
5.385537355173791,0.459
5.387534958050339,0.46
5.389532560926887,0.463
5.391530163803435,0.465
5.393527766679983,0.467
5.395525369556531,0.469
5.397522972433079,0.471
5.399520575309628,0.473
5.401518178186176,0.473
5.403515781062724,0.471
5.405513383939272,0.473
5.40751098681582,0.473
5.4095085896923685,0.476
5.4115061925689165,0.479
5.413503795445465,0.48
5.415501398322013,0.483
5.4174990011985615,0.485
5.41949660407511,0.488
5.421494206951658,0.49
5.423491809828206,0.49
5.425489412704754,0.491
5.427487015581302,0.493
5.42948461845785,0.493
5.431482221334398,0.491
5.433479824210946,0.492
5.435477427087495,0.492
5.437475029964043,0.494
5.439472632840591,0.495
5.441470235717139,0.493
5.443467838593687,0.495
5.445465441470235,0.495
5.447463044346783,0.495
5.449460647223331,0.496
5.451458250099879,0.497
5.453455852976428,0.499
5.455453455852976,0.499
5.457451058729524,0.5
5.459448661606072,0.501
5.46144626448262,0.503
5.463443867359168,0.505
5.465441470235716,0.504
5.467439073112264,0.503
5.4694366759888124,0.504
5.471434278865361,0.508
5.473431881741909,0.509
5.4754294846184575,0.509
5.4774270874950055,0.513
5.4794246903715536,0.514
5.481422293248102,0.514
5.48341989612465,0.512
5.485417499001198,0.514
5.487415101877746,0.518
5.489412704754295,0.518
5.491410307630843,0.521
5.493407910507391,0.523
5.495405513383939,0.525
5.497403116260487,0.527
5.499400719137035,0.528
5.501398322013583,0.531
5.503395924890131,0.538
5.505393527766679,0.539
5.507391130643228,0.536
5.509388733519776,0.538
5.511386336396324,0.541
5.513383939272872,0.542
5.51538154214942,0.543
5.517379145025968,0.546
5.519376747902516,0.546
5.521374350779064,0.545
5.523371953655612,0.551
5.525369556532161,0.55
5.527367159408709,0.549
5.529364762285257,0.551
5.531362365161805,0.552
5.533359968038353,0.553
5.535357570914901,0.555
5.5373551737914495,0.556
5.5393527766679975,0.56
5.541350379544546,0.564
5.5433479824210945,0.564
5.5453455852976425,0.566
5.547343188174191,0.568
5.549340791050739,0.573
5.551338393927287,0.574
5.553335996803835,0.577
5.555333599680383,0.58
5.557331202556931,0.583
5.559328805433479,0.586
5.561326408310028,0.586
5.563324011186576,0.588
5.565321614063124,0.592
5.567319216939672,0.592
5.56931681981622,0.594
5.571314422692768,0.598
5.573312025569316,0.601
5.575309628445864,0.604
5.577307231322412,0.607
5.579304834198961,0.612
5.581302437075509,0.619
5.583300039952057,0.622
5.585297642828605,0.623
5.587295245705153,0.625
5.589292848581701,0.631
5.591290451458249,0.635
5.593288054334797,0.635
5.595285657211345,0.639
5.597283260087894,0.645
5.599280862964442,0.644
5.60127846584099,0.646
5.6032760687175385,0.652
5.6052736715940865,0.654
5.607271274470635,0.656
5.609268877347183,0.66
5.611266480223731,0.664
5.613264083100279,0.668
5.615261685976828,0.671
5.617259288853376,0.676
5.619256891729924,0.68
5.621254494606472,0.687
5.62325209748302,0.694
5.625249700359568,0.699
5.627247303236116,0.704
5.629244906112664,0.706
5.631242508989212,0.711
5.633240111865761,0.717
5.635237714742309,0.721
5.637235317618857,0.725
5.639232920495405,0.729
5.641230523371953,0.738
5.643228126248501,0.743
5.645225729125049,0.749
5.647223332001597,0.753
5.649220934878145,0.755
5.651218537754694,0.759
5.653216140631242,0.766
5.65521374350779,0.772
5.657211346384338,0.778
5.659208949260886,0.783
5.661206552137434,0.787
5.663204155013982,0.794
5.6652017578905305,0.802
5.6671993607670785,0.809
5.6691969636436275,0.813
5.6711945665201755,0.819
5.6731921693967235,0.825
5.675189772273272,0.828
5.67718737514982,0.834
5.679184978026368,0.841
5.681182580902916,0.842
5.683180183779464,0.84
5.685177786656012,0.847
5.687175389532561,0.854
5.689172992409109,0.859
5.691170595285657,0.863
5.693168198162205,0.867
5.695165801038753,0.872
5.697163403915301,0.872
5.699161006791849,0.875
5.701158609668397,0.881
5.703156212544945,0.885
5.705153815421494,0.888
5.707151418298042,0.891
5.70914902117459,0.896
5.711146624051138,0.897
5.713144226927686,0.895
5.715141829804234,0.898
5.717139432680782,0.902
5.71913703555733,0.903
5.721134638433878,0.903
5.723132241310427,0.905
5.725129844186975,0.908
5.727127447063523,0.909
5.729125049940071,0.908
5.7311226528166195,0.911
5.7331202556931675,0.913
5.735117858569716,0.91
5.737115461446264,0.911
5.739113064322812,0.914
5.741110667199361,0.912
5.743108270075909,0.913
5.745105872952457,0.913
5.747103475829005,0.911
5.749101078705553,0.908
5.751098681582101,0.902
5.753096284458649,0.902
5.755093887335197,0.903
5.757091490211745,0.9
5.759089093088294,0.898
5.761086695964842,0.896
5.76308429884139,0.891
5.765081901717938,0.886
5.767079504594486,0.882
5.769077107471034,0.882
5.771074710347582,0.879
5.77307231322413,0.874
5.775069916100678,0.868
5.777067518977227,0.865
5.779065121853775,0.864
5.781062724730323,0.859
5.783060327606871,0.854
5.785057930483419,0.85
5.787055533359967,0.847
5.789053136236515,0.841
5.7910507391130635,0.833
5.7930483419896115,0.824
5.79504594486616,0.82
5.7970435477427085,0.813
5.7990411506192565,0.804
5.801038753495805,0.796
5.803036356372353,0.783
5.805033959248901,0.777
5.807031562125449,0.772
5.809029165001997,0.763
5.811026767878545,0.756
5.813024370755094,0.745
5.815021973631642,0.735
5.81701957650819,0.725
5.819017179384738,0.714
5.821014782261286,0.706
5.823012385137834,0.697
5.825009988014382,0.689
5.82700759089093,0.681
5.829005193767478,0.673
5.831002796644027,0.663
5.833000399520575,0.655
5.834998002397123,0.648
5.836995605273671,0.642
5.838993208150219,0.637
5.840990811026767,0.628
5.842988413903315,0.619
5.844986016779863,0.613
5.846983619656411,0.608
5.84898122253296,0.602
5.850978825409508,0.595
5.852976428286056,0.588
5.854974031162604,0.582
5.856971634039152,0.577
5.8589692369157005,0.572
5.8609668397922485,0.569
5.862964442668797,0.564
5.864962045545345,0.556
5.8669596484218935,0.551
5.868957251298442,0.547
5.87095485417499,0.547
5.872952457051538,0.543
5.874950059928086,0.536
5.876947662804634,0.531
5.878945265681182,0.524
5.88094286855773,0.522
5.882940471434278,0.52
5.884938074310827,0.517
5.886935677187375,0.512
5.888933280063923,0.509
5.890930882940471,0.508
5.892928485817019,0.504
5.894926088693567,0.5
5.896923691570115,0.499
5.898921294446663,0.497
5.900918897323211,0.496
5.90291650019976,0.495
5.904914103076308,0.492
5.906911705952856,0.487
5.908909308829404,0.485
5.910906911705952,0.483
5.9129045145825,0.48
5.914902117459048,0.478
5.916899720335596,0.477
5.9188973232121445,0.48
5.920894926088693,0.477
5.922892528965241,0.474
5.9248901318417895,0.475
5.9268877347183375,0.475
5.928885337594886,0.476
5.930882940471434,0.476
5.932880543347982,0.472
5.93487814622453,0.472
5.936875749101078,0.474
5.938873351977627,0.47
5.940870954854175,0.468
5.942868557730723,0.469
5.944866160607271,0.467
5.946863763483819,0.465
5.948861366360367,0.464
5.950858969236915,0.463
5.952856572113463,0.465
5.954854174990011,0.467
5.95685177786656,0.465
5.958849380743108,0.462
5.960846983619656,0.46
5.962844586496204,0.458
5.964842189372752,0.46
5.9668397922493,0.461
5.968837395125848,0.46
5.970834998002396,0.46
5.972832600878944,0.458
5.974830203755493,0.456
5.976827806632041,0.454
5.978825409508589,0.455
5.980823012385137,0.459
5.982820615261685,0.458
5.9848182181382334,0.458
5.9868158210147815,0.458
5.9888134238913295,0.46
5.990811026767878,0.46
5.9928086296444265,0.458
5.9948062325209746,0.459
5.996803835397523,0.454
5.998801438274071,0.456
6.000799041150619,0.458
6.002796644027167,0.455
6.004794246903715,0.456
6.006791849780263,0.454
6.008789452656811,0.456
6.01078705553336,0.455
6.012784658409908,0.454
6.014782261286456,0.458
6.016779864163004,0.457
6.018777467039552,0.455
6.0207750699161,0.457
6.022772672792648,0.459
6.024770275669196,0.46
6.026767878545744,0.459
6.028765481422293,0.459
6.030763084298841,0.459
6.032760687175389,0.459
6.034758290051937,0.457
6.036755892928485,0.457
6.038753495805033,0.46
6.040751098681581,0.459
6.042748701558129,0.457
6.044746304434677,0.459
6.046743907311226,0.458
6.048741510187774,0.458
6.050739113064322,0.459
6.0527367159408705,0.46
6.0547343188174185,0.459
6.056731921693967,0.459
6.058729524570515,0.46
6.060727127447063,0.46
6.062724730323611,0.463
6.06472233320016,0.466
6.066719936076708,0.463
6.068717538953256,0.465
6.070715141829804,0.467
6.072712744706352,0.465
6.0747103475829,0.464
6.076707950459448,0.467
6.078705553335996,0.466
6.080703156212544,0.465
6.082700759089093,0.468
6.084698361965641,0.468
6.086695964842189,0.466
6.088693567718737,0.465
6.090691170595285,0.467
6.092688773471833,0.466
6.094686376348381,0.464
6.096683979224929,0.463
6.098681582101477,0.462
6.100679184978026,0.465
6.102676787854574,0.465
6.104674390731122,0.463
6.10667199360767,0.465
6.108669596484218,0.466
6.110667199360766,0.466
6.1126648022373145,0.464
6.1146624051138625,0.464
6.1166600079904105,0.464
6.1186576108669595,0.464
6.1206552137435075,0.466
6.122652816620056,0.466
6.124650419496604,0.465
6.126648022373152,0.468
6.1286456252497,0.47
6.130643228126248,0.467
6.132640831002796,0.464
6.134638433879344,0.469
6.136636036755892,0.469
6.138633639632441,0.469
6.140631242508989,0.47
6.142628845385537,0.469
6.144626448262085,0.47
6.146624051138633,0.47
6.148621654015181,0.469
6.150619256891729,0.47
6.152616859768277,0.47
6.154614462644825,0.468
6.156612065521374,0.469
6.158609668397922,0.468
6.16060727127447,0.465
6.162604874151018,0.466
6.164602477027566,0.467
6.166600079904114,0.467
6.168597682780662,0.466
6.17059528565721,0.466
6.172592888533758,0.467
6.174590491410307,0.466
6.176588094286855,0.467
6.1785856971634034,0.468
6.1805833000399515,0.469
6.1825809029164995,0.469
6.184578505793048,0.469
6.186576108669596,0.469
6.188573711546144,0.47
6.190571314422692,0.467
6.192568917299241,0.467
6.194566520175789,0.468
6.196564123052337,0.467
6.198561725928885,0.463
6.200559328805433,0.462
6.202556931681981,0.463
6.204554534558529,0.465
6.206552137435077,0.465
6.208549740311625,0.462
6.210547343188174,0.461
6.212544946064722,0.462
6.21454254894127,0.461
6.216540151817818,0.456
6.218537754694366,0.457
6.220535357570914,0.461
6.222532960447462,0.459
6.22453056332401,0.46
6.226528166200558,0.457
6.228525769077107,0.457
6.230523371953655,0.459
6.232520974830203,0.454
6.234518577706751,0.454
6.236516180583299,0.455
6.238513783459847,0.454
6.2405113863363955,0.452
6.2425089892129435,0.45
6.2445065920894915,0.451
6.2465041949660405,0.453
6.2485017978425885,0.451
6.250499400719137,0.448
6.252497003595685,0.451
6.254494606472233,0.451
6.256492209348781,0.448
6.258489812225329,0.446
6.260487415101877,0.449
6.262485017978425,0.452
6.264482620854974,0.451
6.266480223731522,0.448
6.26847782660807,0.45
6.270475429484618,0.451
6.272473032361166,0.451
6.274470635237714,0.447
6.276468238114262,0.447
6.27846584099081,0.446
6.280463443867358,0.442
6.282461046743907,0.442
6.284458649620455,0.443
6.286456252497003,0.445
6.288453855373551,0.443
6.290451458250099,0.442
6.292449061126647,0.44
6.294446664003195,0.437
6.296444266879743,0.435
6.298441869756291,0.436
6.30043947263284,0.44
6.302437075509388,0.44
6.304434678385936,0.439
6.3064322812624845,0.438
6.3084298841390325,0.436
6.3104274870155805,0.435
6.312425089892129,0.435
6.314422692768677,0.438
6.316420295645225,0.439
6.318417898521774,0.438
6.320415501398322,0.435
6.32241310427487,0.432
6.324410707151418,0.432
6.326408310027966,0.432
6.328405912904514,0.43
6.330403515781062,0.429
6.33240111865761,0.432
6.334398721534158,0.432
6.336396324410707,0.431
6.338393927287255,0.429
6.340391530163803,0.425
6.342389133040351,0.427
6.344386735916899,0.429
6.346384338793447,0.431
6.348381941669995,0.433
6.350379544546543,0.432
6.352377147423091,0.43
6.35437475029964,0.43
6.356372353176188,0.432
6.358369956052736,0.432
6.360367558929284,0.43
6.362365161805832,0.428
6.36436276468238,0.431
6.366360367558928,0.431
6.3683579704354765,0.428
6.3703555733120245,0.429
6.372353176188573,0.428
6.3743507790651215,0.427
6.3763483819416695,0.426
6.378345984818218,0.426
6.380343587694766,0.426
6.382341190571314,0.425
6.384338793447862,0.425
6.38633639632441,0.423
6.388333999200958,0.422
6.390331602077507,0.423
6.392329204954055,0.425
6.394326807830603,0.423
6.396324410707151,0.423
6.398322013583699,0.421
6.400319616460247,0.42
6.402317219336795,0.422
6.404314822213343,0.418
6.406312425089891,0.416
6.40831002796644,0.417
6.410307630842988,0.419
6.412305233719536,0.419
6.414302836596084,0.42
6.416300439472632,0.423
6.41829804234918,0.419
6.420295645225728,0.417
6.422293248102276,0.421
6.424290850978824,0.42
6.426288453855373,0.42
6.428286056731921,0.419
6.430283659608469,0.418
6.432281262485017,0.419
6.4342788653615655,0.417
6.4362764682381135,0.419
6.4382740711146615,0.421
6.44027167399121,0.418
6.442269276867758,0.416
6.444266879744307,0.416
6.446264482620855,0.415
6.448262085497403,0.416
6.450259688373951,0.415
6.452257291250499,0.413
6.454254894127047,0.417
6.456252497003595,0.419
6.458250099880143,0.416
6.460247702756691,0.415
6.46224530563324,0.413
6.464242908509788,0.412
6.466240511386336,0.413
6.468238114262884,0.414
6.470235717139432,0.415
6.47223332001598,0.415
6.474230922892528,0.416
6.476228525769076,0.416
6.478226128645624,0.415
6.480223731522173,0.415
6.482221334398721,0.414
6.484218937275269,0.417
6.486216540151817,0.418
6.488214143028365,0.417
6.490211745904913,0.42
6.492209348781461,0.42
6.494206951658009,0.415
6.4962045545345575,0.412
6.498202157411106,0.413
6.5001997602876544,0.413
6.5021973631642025,0.415
6.5041949660407505,0.418
6.506192568917299,0.416
6.508190171793847,0.414
6.510187774670395,0.412
6.512185377546943,0.412
6.514182980423491,0.411
6.51618058330004,0.41
6.518178186176588,0.408
6.520175789053136,0.408
6.522173391929684,0.409
6.524170994806232,0.408
6.52616859768278,0.409
6.528166200559328,0.406
6.530163803435876,0.406
6.532161406312424,0.406
6.534159009188973,0.407
6.536156612065521,0.408
6.538154214942069,0.408
6.540151817818617,0.406
6.542149420695165,0.407
6.544147023571713,0.409
6.546144626448261,0.41
6.548142229324809,0.408
6.550139832201357,0.406
6.552137435077906,0.406
6.554135037954454,0.407
6.556132640831002,0.408
6.55813024370755,0.413
6.560127846584098,0.416
6.5621254494606465,0.408
6.5641230523371945,0.408
6.5661206552137426,0.411
6.568118258090291,0.41
6.5701158609668395,0.412
6.572113463843388,0.409
6.574111066719936,0.41
6.576108669596484,0.413
6.578106272473032,0.414
6.58010387534958,0.414
6.582101478226128,0.418
6.584099081102676,0.423
6.586096683979224,0.424
6.588094286855773,0.425
6.590091889732321,0.427
6.592089492608869,0.431
6.594087095485417,0.433
6.596084698361965,0.433
6.598082301238513,0.434
6.600079904115061,0.435
6.602077506991609,0.44
6.604075109868157,0.439
6.606072712744706,0.438
6.608070315621254,0.435
6.610067918497802,0.438
6.61206552137435,0.443
6.614063124250898,0.442
6.616060727127446,0.446
6.618058330003994,0.446
6.620055932880542,0.447
6.62205353575709,0.448
6.624051138633639,0.446
6.626048741510187,0.445
6.6280463443867355,0.444
6.6300439472632835,0.446
6.6320415501398315,0.447
6.63403915301638,0.45
6.636036755892928,0.454
6.638034358769476,0.456
6.640031961646024,0.452
6.642029564522573,0.451
6.644027167399121,0.445
6.646024770275669,0.443
6.648022373152217,0.446
6.650019976028765,0.449
6.652017578905313,0.452
6.654015181781861,0.451
6.656012784658409,0.452
6.658010387534957,0.449
6.660007990411506,0.448
6.662005593288054,0.45
6.664003196164602,0.448
6.66600079904115,0.44
6.667998401917698,0.436
6.669996004794246,0.438
6.671993607670794,0.436
6.673991210547342,0.435
6.67598881342389,0.431
6.677986416300439,0.427
6.679984019176987,0.423
6.681981622053535,0.418
6.683979224930083,0.416
6.685976827806631,0.412
6.687974430683179,0.411
6.6899720335597275,0.415
6.6919696364362755,0.416
6.693967239312824,0.42
6.6959648421893725,0.423
6.6979624450659205,0.423
6.699960047942469,0.427
6.701957650819017,0.431
6.703955253695565,0.436
6.705952856572113,0.434
6.707950459448661,0.434
6.709948062325209,0.438
6.711945665201757,0.433
6.713943268078306,0.431
6.715940870954854,0.429
6.717938473831402,0.429
6.71993607670795,0.432
6.721933679584498,0.434
6.723931282461046,0.438
6.725928885337594,0.441
6.727926488214142,0.447
6.72992409109069,0.45
6.731921693967239,0.451
6.733919296843787,0.452
6.735916899720335,0.452
6.737914502596883,0.453
6.739912105473431,0.448
6.741909708349979,0.444
6.743907311226527,0.443
6.745904914103075,0.44
6.747902516979623,0.439
6.749900119856172,0.435
6.75189772273272,0.435
6.753895325609268,0.436
6.7558929284858165,0.429
6.7578905313623645,0.429
6.7598881342389125,0.43
6.761885737115461,0.424
6.763883339992009,0.419
6.765880942868557,0.417
6.767878545745106,0.413
6.769876148621654,0.407
6.771873751498202,0.404
6.77387135437475,0.402
6.775868957251298,0.403
6.777866560127846,0.401
6.779864163004394,0.399
6.781861765880942,0.397
6.78385936875749,0.395
6.785856971634039,0.391
6.787854574510587,0.388
6.789852177387135,0.386
6.791849780263683,0.383
6.793847383140231,0.386
6.795844986016779,0.384
6.797842588893327,0.378
6.799840191769875,0.376
6.801837794646423,0.371
6.803835397522972,0.371
6.80583300039952,0.373
6.807830603276068,0.372
6.809828206152616,0.371
6.811825809029164,0.372
6.813823411905712,0.372
6.81582101478226,0.371
6.8178186176588085,0.372
6.8198162205353565,0.372
6.8218138234119055,0.372
6.8238114262884535,0.372
6.8258090291650015,0.372
6.82780663204155,0.371
6.829804234918098,0.37
6.831801837794646,0.371
6.833799440671194,0.37
6.835797043547742,0.369
6.83779464642429,0.371
6.839792249300839,0.372
6.841789852177387,0.372
6.843787455053935,0.37
6.845785057930483,0.372
6.847782660807031,0.375
6.849780263683579,0.372
6.851777866560127,0.372
6.853775469436675,0.372
6.855773072313223,0.372
6.857770675189772,0.376
6.85976827806632,0.374
6.861765880942868,0.377
6.863763483819416,0.382
6.865761086695964,0.389
6.867758689572512,0.396
6.86975629244906,0.393
6.871753895325608,0.401
6.873751498202156,0.425
6.875749101078705,0.452
6.877746703955253,0.475
6.879744306831801,0.491
6.881741909708349,0.51
6.8837395125848975,0.53
6.8857371154614455,0.55
6.8877347183379936,0.577
6.889732321214542,0.609
6.89172992409109,0.652
6.893727526967639,0.699
6.895725129844187,0.742
6.897722732720735,0.79
6.899720335597283,0.853
6.901717938473831,0.91
6.903715541350379,0.951
6.905713144226927,0.988
6.907710747103475,1.032
6.909708349980023,1.092
6.911705952856572,1.172
6.91370355573312,1.244
6.915701158609668,1.292
6.917698761486216,1.331
6.919696364362764,1.368
6.921693967239312,1.394
6.92369157011586,1.421
6.925689172992408,1.437
6.927686775868956,1.433
6.929684378745505,1.444
6.931681981622053,1.451
6.933679584498601,1.446
6.935677187375149,1.433
6.937674790251697,1.395
6.939672393128245,1.318
6.941669996004793,1.207
6.943667598881341,1.093
6.9456652017578895,0.968
6.947662804634438,0.813
6.9496604075109865,0.661
6.9516580103875345,0.511
6.9536556132640825,0.346
6.955653216140631,0.162
6.957650819017179,-0.037
6.959648421893727,-0.213
6.961646024770275,-0.394
6.963643627646823,-0.587
6.965641230523371,-0.774
6.96763883339992,-0.944
6.969636436276468,-1.075
6.971634039153016,-1.169
6.973631642029564,-1.173
6.975629244906112,-1.129
6.97762684778266,-1.087
6.979624450659208,-1.026
6.981622053535756,-0.966
6.983619656412304,-0.905
6.985617259288853,-0.839
6.987614862165401,-0.792
6.989612465041949,-0.748
6.991610067918497,-0.683
6.993607670795045,-0.619
6.995605273671593,-0.551
6.997602876548141,-0.468
6.999600479424689,-0.381
7.001598082301237,-0.302
7.003595685177786,-0.227
7.005593288054334,-0.161
7.007590890930882,-0.102
7.00958849380743,-0.045
7.0115860966839785,-0.001
7.0135836995605265,0.037
7.015581302437075,0.072
7.017578905313623,0.106
7.019576508190171,0.142
7.02157411106672,0.179
7.023571713943268,0.209
7.025569316819816,0.237
7.027566919696364,0.269
7.029564522572912,0.292
7.03156212544946,0.308
7.033559728326008,0.328
7.035557331202556,0.342
7.037554934079104,0.354
7.039552536955653,0.363
7.041550139832201,0.368
7.043547742708749,0.374
7.045545345585297,0.38
7.047542948461845,0.388
7.049540551338393,0.39
7.051538154214941,0.396
7.053535757091489,0.402
7.055533359968037,0.402
7.057530962844586,0.403
7.059528565721134,0.408
7.061526168597682,0.414
7.06352377147423,0.418
7.065521374350778,0.421
7.067518977227326,0.425
7.069516580103874,0.424
7.0715141829804224,0.428
7.0735117858569705,0.435
7.075509388733519,0.435
7.0775069916100675,0.439
7.0795045944866155,0.441
7.0815021973631636,0.439
7.083499800239712,0.44
7.08549740311626,0.442
7.087495005992808,0.444
7.089492608869356,0.446
7.091490211745904,0.45
7.093487814622453,0.455
7.095485417499001,0.453
7.097483020375549,0.456
7.099480623252097,0.461
7.101478226128645,0.46
7.103475829005193,0.461
7.105473431881741,0.463
7.107471034758289,0.465
7.109468637634837,0.466
7.111466240511386,0.464
7.113463843387934,0.466
7.115461446264482,0.467
7.11745904914103,0.469
7.119456652017578,0.471
7.121454254894126,0.469
7.123451857770674,0.473
7.125449460647222,0.475
7.12744706352377,0.471
7.129444666400319,0.472
7.131442269276867,0.474
7.133439872153415,0.476
7.135437475029963,0.475
7.137435077906511,0.476
7.1394326807830595,0.479
7.1414302836596075,0.479
7.143427886536156,0.483
7.145425489412704,0.485
7.1474230922892525,0.484
7.149420695165801,0.486
7.151418298042349,0.486
7.153415900918897,0.488
7.155413503795445,0.491
7.157411106671993,0.491
7.159408709548541,0.492
7.161406312425089,0.491
7.163403915301637,0.491
7.165401518178186,0.49
7.167399121054734,0.492
7.169396723931282,0.494
7.17139432680783,0.493
7.173391929684378,0.493
7.175389532560926,0.493
7.177387135437474,0.497
7.179384738314022,0.498
7.18138234119057,0.5
7.183379944067119,0.503
7.185377546943667,0.503
7.187375149820215,0.504
7.189372752696763,0.506
7.191370355573311,0.508
7.193367958449859,0.511
7.195365561326407,0.513
7.197363164202955,0.516
7.1993607670795035,0.516
7.201358369956052,0.514
7.2033559728326,0.515
7.2053535757091485,0.52
7.2073511785856965,0.521
7.209348781462245,0.521
7.211346384338793,0.519
7.213343987215341,0.52
7.215341590091889,0.524
7.217339192968437,0.525
7.219336795844986,0.53
7.221334398721534,0.531
7.223332001598082,0.529
7.22532960447463,0.531
7.227327207351178,0.532
7.229324810227726,0.534
7.231322413104274,0.537
7.233320015980822,0.538
7.23531761885737,0.539
7.237315221733919,0.54
7.239312824610467,0.543
7.241310427487015,0.543
7.243308030363563,0.544
7.245305633240111,0.551
7.247303236116659,0.549
7.249300838993207,0.548
7.251298441869755,0.553
7.253296044746303,0.553
7.255293647622852,0.556
7.2572912504994,0.562
7.259288853375948,0.563
7.261286456252496,0.561
7.263284059129044,0.565
7.2652816620055924,0.57
7.2672792648821405,0.573
7.2692768677586885,0.575
7.271274470635237,0.576
7.2732720735117855,0.579
7.2752696763883336,0.586
7.277267279264882,0.587
7.27926488214143,0.586
7.281262485017978,0.588
7.283260087894526,0.592
7.285257690771074,0.596
7.287255293647622,0.599
7.28925289652417,0.603
7.291250499400719,0.607
7.293248102277267,0.607
7.295245705153815,0.607
7.297243308030363,0.609
7.299240910906911,0.613
7.301238513783459,0.619
7.303236116660007,0.625
7.305233719536555,0.631
7.307231322413103,0.633
7.309228925289652,0.635
7.3112265281662,0.637
7.313224131042748,0.641
7.315221733919296,0.646
7.317219336795844,0.652
7.319216939672392,0.656
7.32121454254894,0.657
7.323212145425488,0.662
7.325209748302036,0.666
7.327207351178585,0.668
7.329204954055133,0.672
7.331202556931681,0.676
7.3332001598082295,0.683
7.3351977626847775,0.69
7.337195365561326,0.693
7.339192968437874,0.701
7.341190571314422,0.707
7.34318817419097,0.711
7.345185777067519,0.715
7.347183379944067,0.72
7.349180982820615,0.723
7.351178585697163,0.727
7.353176188573711,0.734
7.355173791450259,0.737
7.357171394326807,0.743
7.359168997203355,0.745
7.361166600079903,0.749
7.363164202956452,0.758
7.365161805833,0.76
7.367159408709548,0.765
7.369157011586096,0.772
7.371154614462644,0.773
7.373152217339192,0.778
7.37514982021574,0.785
7.377147423092288,0.789
7.379145025968836,0.792
7.381142628845385,0.799
7.383140231721933,0.806
7.385137834598481,0.815
7.387135437475029,0.818
7.389133040351577,0.819
7.391130643228125,0.825
7.3931282461046735,0.83
7.3951258489812215,0.835
7.3971234518577695,0.84
7.3991210547343185,0.844
7.4011186576108665,0.847
7.403116260487415,0.853
7.405113863363963,0.859
7.407111466240511,0.862
7.409109069117059,0.865
7.411106671993607,0.867
7.413104274870155,0.87
7.415101877746703,0.875
7.417099480623252,0.88
7.4190970834998,0.884
7.421094686376348,0.887
7.423092289252896,0.891
7.425089892129444,0.894
7.427087495005992,0.894
7.42908509788254,0.896
7.431082700759088,0.896
7.433080303635636,0.896
7.435077906512185,0.896
7.437075509388733,0.899
7.439073112265281,0.902
7.441070715141829,0.898
7.443068318018377,0.902
7.445065920894925,0.907
7.447063523771473,0.907
7.449061126648021,0.908
7.451058729524569,0.908
7.453056332401118,0.907
7.455053935277666,0.905
7.457051538154214,0.904
7.459049141030762,0.904
7.4610467439073105,0.903
7.4630443467838585,0.902
7.465041949660407,0.903
7.467039552536955,0.904
7.469037155413503,0.9
7.471034758290052,0.899
7.4730323611666,0.897
7.475029964043148,0.892
7.477027566919696,0.889
7.479025169796244,0.885
7.481022772672792,0.878
7.48302037554934,0.876
7.485017978425888,0.873
7.487015581302436,0.868
7.489013184178985,0.864
7.491010787055533,0.857
7.493008389932081,0.852
7.495005992808629,0.845
7.497003595685177,0.838
7.499001198561725,0.835
7.500998801438273,0.828
7.502996404314821,0.821
7.504994007191369,0.811
7.506991610067918,0.802
7.508989212944466,0.797
7.510986815821014,0.789
7.512984418697562,0.778
7.51498202157411,0.77
7.516979624450658,0.765
7.518977227327206,0.755
7.5209748302037545,0.744
7.5229724330803025,0.734
7.524970035956851,0.724
7.5269676388333995,0.721
7.5289652417099475,0.711
7.530962844586496,0.701
7.532960447463044,0.693
7.534958050339592,0.68
7.53695565321614,0.673
7.538953256092688,0.664
7.540950858969236,0.653
7.542948461845785,0.644
7.544946064722333,0.636
7.546943667598881,0.63
7.548941270475429,0.622
7.550938873351977,0.616
7.552936476228525,0.61
7.554934079105073,0.602
7.556931681981621,0.596
7.558929284858169,0.588
7.560926887734718,0.582
7.562924490611266,0.579
7.564922093487814,0.572
7.566919696364362,0.565
7.56891729924091,0.557
7.570914902117458,0.55
7.572912504994006,0.545
7.574910107870554,0.539
7.576907710747102,0.534
7.578905313623651,0.529
7.580902916500199,0.524
7.582900519376747,0.522
7.584898122253295,0.515
7.5868957251298434,0.511
7.5888933280063915,0.506
7.5908909308829395,0.502
7.592888533759488,0.499
7.594886136636036,0.496
7.5968837395125846,0.495
7.598881342389133,0.491
7.600878945265681,0.489
7.602876548142229,0.487
7.604874151018777,0.485
7.606871753895325,0.482
7.608869356771873,0.477
7.610866959648421,0.477
7.612864562524969,0.475
7.614862165401518,0.473
7.616859768278066,0.471
7.618857371154614,0.469
7.620854974031162,0.468
7.62285257690771,0.469
7.624850179784258,0.468
7.626847782660806,0.469
7.628845385537354,0.47
7.630842988413902,0.468
7.632840591290451,0.466
7.634838194166999,0.464
7.636835797043547,0.461
7.638833399920095,0.459
7.640831002796643,0.457
7.642828605673191,0.453
7.644826208549739,0.452
7.646823811426287,0.454
7.6488214143028355,0.452
7.650819017179384,0.451
7.652816620055932,0.449
7.6548142229324805,0.45
7.6568118258090285,0.45
7.658809428685577,0.451
7.660807031562125,0.453
7.662804634438673,0.45
7.664802237315221,0.445
7.666799840191769,0.443
7.668797443068318,0.444
7.670795045944866,0.442
7.672792648821414,0.442
7.674790251697962,0.442
7.67678785457451,0.442
7.678785457451058,0.443
7.680783060327606,0.436
7.682780663204154,0.435
7.684778266080702,0.438
7.686775868957251,0.44
7.688773471833799,0.44
7.690771074710347,0.439
7.692768677586895,0.439
7.694766280463443,0.439
7.696763883339991,0.439
7.698761486216539,0.44
7.700759089093087,0.442
7.702756691969635,0.441
7.704754294846184,0.44
7.706751897722732,0.442
7.70874950059928,0.44
7.710747103475828,0.437
7.712744706352376,0.439
7.7147423092289245,0.441
7.7167399121054725,0.439
7.7187375149820205,0.439
7.720735117858569,0.44
7.7227327207351175,0.443
7.724730323611666,0.439
7.726727926488214,0.435
7.728725529364762,0.438
7.73072313224131,0.432
7.732720735117858,0.429
7.734718337994406,0.432
7.736715940870954,0.429
7.738713543747502,0.43
7.740711146624051,0.433
7.742708749500599,0.435
7.744706352377147,0.437
7.746703955253695,0.439
7.748701558130243,0.442
7.750699161006791,0.439
7.752696763883339,0.439
7.754694366759887,0.442
7.756691969636435,0.444
7.758689572512984,0.439
7.760687175389532,0.439
7.76268477826608,0.442
7.764682381142628,0.443
7.766679984019176,0.441
7.768677586895724,0.438
7.770675189772272,0.439
7.77267279264882,0.436
7.774670395525368,0.436
7.7766679984019165,0.438
7.778665601278465,0.44
7.7806632041550134,0.442
7.7826608070315615,0.442
7.7846584099081095,0.443
7.786656012784658,0.443
7.788653615661206,0.441
7.790651218537754,0.441
7.792648821414302,0.443
7.79464642429085,0.442
7.796644027167399,0.441
7.798641630043947,0.442
7.800639232920495,0.439
7.802636835797043,0.44
7.804634438673591,0.442
7.806632041550139,0.442
7.808629644426687,0.442
7.810627247303235,0.444
7.812624850179783,0.447
7.814622453056332,0.447
7.81662005593288,0.446
7.818617658809428,0.445
7.820615261685976,0.449
7.822612864562524,0.452
7.824610467439072,0.45
7.82660807031562,0.451
7.828605673192168,0.447
7.830603276068716,0.446
7.832600878945265,0.45
7.834598481821813,0.446
7.836596084698361,0.449
7.838593687574909,0.45
7.840591290451457,0.447
7.8425888933280055,0.446
7.8445864962045535,0.446
7.8465840990811015,0.45
7.84858170195765,0.45
7.8505793048341985,0.453
7.852576907710747,0.452
7.854574510587295,0.451
7.856572113463843,0.454
7.858569716340391,0.453
7.860567319216939,0.452
7.862564922093487,0.451
7.864562524970035,0.453
7.866560127846583,0.456
7.868557730723132,0.455
7.87055533359968,0.453
7.872552936476228,0.454
7.874550539352776,0.455
7.876548142229324,0.452
7.878545745105872,0.451
7.88054334798242,0.45
7.882540950858968,0.451
7.884538553735516,0.449
7.886536156612065,0.448
7.888533759488613,0.451
7.890531362365161,0.449
7.892528965241709,0.448
7.894526568118257,0.453
7.896524170994805,0.454
7.898521773871353,0.454
7.900519376747901,0.458
7.902516979624449,0.456
7.904514582500998,0.453
7.906512185377546,0.453
7.9085097882540945,0.45
7.9105073911306425,0.452
7.9125049940071905,0.454
7.914502596883739,0.451
7.916500199760287,0.449
7.918497802636835,0.448
7.920495405513383,0.446
7.922493008389932,0.447
7.92449061126648,0.447
7.926488214143028,0.444
7.928485817019576,0.442
7.930483419896124,0.443
7.932481022772672,0.443
7.93447862564922,0.444
7.936476228525768,0.443
7.938473831402316,0.443
7.940471434278865,0.444
7.942469037155413,0.444
7.944466640031961,0.445
7.946464242908509,0.444
7.948461845785057,0.444
7.950459448661605,0.446
7.952457051538153,0.445
7.954454654414701,0.442
7.956452257291249,0.442
7.958449860167798,0.44
7.960447463044346,0.438
7.962445065920894,0.438
7.964442668797442,0.436
7.96644027167399,0.438
7.968437874550538,0.436
7.9704354774270865,0.433
7.9724330803036345,0.439
7.9744306831801826,0.44
7.9764282860567315,0.431
7.9784258889332795,0.434
7.980423491809828,0.442
7.982421094686376,0.439
7.984418697562924,0.435
7.986416300439472,0.437
7.98841390331602,0.433
7.990411506192568,0.431
7.992409109069116,0.432
7.994406711945665,0.434
7.996404314822213,0.433
7.998401917698761,0.43
8.000399520575309,0.428
8.002397123451857,0.427
8.004394726328405,0.427
8.006392329204953,0.425
8.008389932081501,0.425
8.01038753495805,0.426
8.012385137834597,0.428
8.014382740711145,0.43
8.016380343587693,0.428
8.018377946464241,0.427
8.020375549340791,0.429
8.02237315221734,0.427
8.024370755093887,0.427
8.026368357970435,0.427
8.028365960846983,0.425
8.030363563723531,0.424
8.03236116660008,0.422
8.034358769476627,0.422
8.036356372353175,0.42
8.038353975229724,0.419
8.040351578106272,0.414
8.04234918098282,0.413
8.044346783859368,0.417
8.046344386735916,0.419
8.048341989612464,0.421
8.050339592489012,0.417
8.05233719536556,0.415
8.054334798242108,0.417
8.056332401118658,0.415
8.058330003995206,0.415
8.060327606871754,0.416
8.062325209748302,0.416
8.06432281262485,0.416
8.066320415501398,0.414
8.068318018377946,0.418
8.070315621254494,0.418
8.072313224131042,0.413
8.07431082700759,0.413
8.076308429884138,0.412
8.078306032760686,0.408
8.080303635637234,0.408
8.082301238513782,0.408
8.08429884139033,0.41
8.086296444266878,0.414
8.088294047143426,0.411
8.090291650019974,0.411
8.092289252896524,0.411
8.094286855773072,0.408
8.09628445864962,0.408
8.098282061526168,0.408
8.100279664402716,0.408
8.102277267279264,0.408
8.104274870155812,0.408
8.10627247303236,0.409
8.108270075908909,0.408
8.110267678785457,0.41
8.112265281662005,0.409
8.114262884538553,0.407
8.1162604874151,0.41
8.118258090291649,0.408
8.120255693168197,0.406
8.122253296044745,0.404
8.124250898921293,0.405
8.126248501797841,0.405
8.12824610467439,0.406
8.130243707550939,0.409
8.132241310427487,0.407
8.134238913304035,0.406
8.136236516180583,0.408
8.138234119057131,0.409
8.140231721933679,0.408
8.142229324810227,0.407
8.144226927686775,0.409
8.146224530563323,0.408
8.148222133439871,0.407
8.15021973631642,0.407
8.152217339192967,0.409
8.154214942069515,0.411
8.156212544946063,0.407
8.158210147822611,0.406
8.16020775069916,0.404
8.162205353575708,0.401
8.164202956452257,0.402
8.166200559328805,0.399
8.168198162205353,0.397
8.170195765081901,0.398
8.17219336795845,0.396
8.174190970834998,0.395
8.176188573711546,0.394
8.178186176588094,0.398
8.180183779464642,0.4
8.18218138234119,0.4
8.184178985217738,0.401
8.186176588094286,0.401
8.188174190970834,0.399
8.190171793847382,0.398
8.19216939672393,0.398
8.194166999600478,0.398
8.196164602477026,0.398
8.198162205353574,0.396
8.200159808230122,0.395
8.202157411106672,0.395
8.20415501398322,0.396
8.206152616859768,0.394
8.208150219736316,0.393
8.210147822612864,0.396
8.212145425489412,0.398
8.21414302836596,0.398
8.216140631242508,0.396
8.218138234119056,0.393
8.220135836995604,0.395
8.222133439872152,0.395
8.2241310427487,0.393
8.226128645625248,0.395
8.228126248501797,0.394
8.230123851378345,0.392
8.232121454254893,0.393
8.23411905713144,0.392
8.236116660007989,0.39
8.238114262884539,0.39
8.240111865761087,0.39
8.242109468637635,0.393
8.244107071514183,0.392
8.24610467439073,0.392
8.248102277267279,0.395
8.250099880143827,0.399
8.252097483020375,0.4
8.254095085896923,0.4
8.256092688773471,0.399
8.258090291650019,0.399
8.260087894526567,0.401
8.262085497403115,0.404
8.264083100279663,0.405
8.266080703156211,0.404
8.26807830603276,0.406
8.270075908909307,0.407
8.272073511785855,0.41
8.274071114662405,0.414
8.276068717538953,0.412
8.278066320415501,0.412
8.28006392329205,0.415
8.282061526168597,0.416
8.284059129045145,0.415
8.286056731921693,0.418
8.288054334798241,0.418
8.29005193767479,0.419
8.292049540551337,0.419
8.294047143427886,0.419
8.296044746304434,0.421
8.298042349180982,0.422
8.30003995205753,0.427
8.302037554934078,0.431
8.304035157810626,0.431
8.306032760687174,0.431
8.308030363563722,0.432
8.310027966440272,0.431
8.31202556931682,0.431
8.314023172193368,0.433
8.316020775069916,0.431
8.318018377946464,0.432
8.320015980823012,0.435
8.32201358369956,0.436
8.324011186576108,0.439
8.326008789452656,0.435
8.328006392329204,0.432
8.330003995205752,0.433
8.3320015980823,0.43
8.333999200958848,0.429
8.335996803835396,0.431
8.337994406711944,0.431
8.339992009588492,0.433
8.34198961246504,0.438
8.343987215341588,0.437
8.345984818218138,0.436
8.347982421094686,0.435
8.349980023971234,0.434
8.351977626847782,0.432
8.35397522972433,0.429
8.355972832600878,0.429
8.357970435477426,0.428
8.359968038353975,0.426
8.361965641230523,0.424
8.36396324410707,0.422
8.365960846983619,0.421
8.367958449860167,0.419
8.369956052736715,0.414
8.371953655613263,0.411
8.37395125848981,0.406
8.375948861366359,0.404
8.377946464242907,0.41
8.379944067119455,0.413
8.381941669996005,0.414
8.383939272872553,0.416
8.3859368757491,0.418
8.387934478625649,0.419
8.389932081502197,0.42
8.391929684378745,0.423
8.393927287255293,0.422
8.395924890131841,0.42
8.397922493008389,0.426
8.399920095884937,0.43
8.401917698761485,0.426
8.403915301638033,0.425
8.405912904514581,0.426
8.40791050739113,0.429
8.409908110267677,0.432
8.411905713144225,0.435
8.413903316020773,0.44
8.415900918897322,0.442
8.417898521773871,0.445
8.41989612465042,0.447
8.421893727526967,0.446
8.423891330403515,0.446
8.425888933280063,0.444
8.427886536156612,0.441
8.42988413903316,0.436
8.431881741909708,0.433
8.433879344786256,0.431
8.435876947662804,0.429
8.437874550539352,0.426
8.4398721534159,0.421
8.441869756292448,0.417
8.443867359168996,0.413
8.445864962045544,0.414
8.447862564922092,0.412
8.44986016779864,0.409
8.451857770675188,0.406
8.453855373551738,0.402
8.455852976428286,0.399
8.457850579304834,0.398
8.459848182181382,0.397
8.46184578505793,0.394
8.463843387934478,0.395
8.465840990811026,0.389
8.467838593687574,0.383
8.469836196564122,0.382
8.47183379944067,0.38
8.473831402317218,0.38
8.475829005193766,0.376
8.477826608070314,0.374
8.479824210946862,0.372
8.48182181382341,0.369
8.483819416699959,0.369
8.485817019576507,0.368
8.487814622453055,0.365
8.489812225329604,0.363
8.491809828206152,0.364
8.4938074310827,0.364
8.495805033959249,0.364
8.497802636835797,0.363
8.499800239712345,0.365
8.501797842588893,0.366
8.50379544546544,0.367
8.505793048341989,0.368
8.507790651218537,0.365
8.509788254095085,0.362
8.511785856971633,0.36
8.513783459848181,0.359
8.515781062724729,0.363
8.517778665601277,0.36
8.519776268477825,0.358
8.521773871354373,0.361
8.523771474230921,0.361
8.525769077107471,0.36
8.527766679984019,0.361
8.529764282860567,0.365
8.531761885737115,0.366
8.533759488613663,0.365
8.535757091490211,0.368
8.53775469436676,0.366
8.539752297243307,0.367
8.541749900119855,0.371
8.543747502996403,0.372
8.545745105872951,0.374
8.5477427087495,0.378
8.549740311626048,0.377
8.551737914502596,0.374
8.553735517379144,0.377
8.555733120255692,0.386
8.55773072313224,0.393
8.559728326008788,0.4
8.561725928885338,0.42
8.563723531761886,0.444
8.565721134638434,0.469
8.567718737514982,0.489
8.56971634039153,0.503
8.571713943268078,0.521
8.573711546144626,0.536
8.575709149021174,0.56
8.577706751897722,0.602
8.57970435477427,0.643
8.581701957650818,0.679
8.583699560527366,0.715
8.585697163403914,0.769
8.587694766280462,0.834
8.58969236915701,0.878
8.591689972033558,0.913
8.593687574910106,0.951
8.595685177786654,1.002
8.597682780663204,1.069
8.599680383539752,1.145
8.6016779864163,1.216
8.603675589292848,1.252
8.605673192169396,1.284
8.607670795045944,1.31
8.609668397922492,1.318
8.61166600079904,1.339
8.613663603675588,1.347
8.615661206552137,1.347
8.617658809428685,1.367
8.619656412305233,1.383
8.62165401518178,1.391
8.623651618058329,1.391
8.625649220934877,1.355
8.627646823811425,1.29
8.629644426687973,1.191
8.63164202956452,1.083
8.63363963244107,0.97
8.635637235317619,0.819
8.637634838194167,0.675
8.639632441070715,0.526
8.641630043947263,0.359
8.643627646823811,0.178
8.645625249700359,-0.015
8.647622852576907,-0.199
8.649620455453455,-0.383
8.651618058330003,-0.565
8.653615661206551,-0.754
8.6556132640831,-0.924
8.657610866959647,-1.054
8.659608469836195,-1.143
8.661606072712743,-1.157
8.663603675589291,-1.121
8.66560127846584,-1.073
8.667598881342387,-1.018
8.669596484218937,-0.951
8.671594087095485,-0.881
8.673591689972033,-0.817
8.675589292848581,-0.75
8.67758689572513,-0.693
8.679584498601677,-0.636
8.681582101478226,-0.567
8.683579704354774,-0.494
8.685577307231322,-0.42
8.68757491010787,-0.343
8.689572512984418,-0.269
8.691570115860966,-0.199
8.693567718737514,-0.134
8.695565321614062,-0.081
8.69756292449061,-0.034
8.699560527367158,0.013
8.701558130243706,0.049
8.703555733120254,0.085
8.705553335996804,0.121
8.707550938873352,0.155
8.7095485417499,0.188
8.711546144626448,0.218
8.713543747502996,0.249
8.715541350379544,0.276
8.717538953256092,0.296
8.71953655613264,0.314
8.721534159009188,0.33
8.723531761885736,0.342
8.725529364762284,0.352
8.727526967638832,0.363
8.72952457051538,0.367
8.731522173391928,0.371
8.733519776268476,0.378
8.735517379145024,0.382
8.737514982021573,0.388
8.73951258489812,0.391
8.74151018777467,0.398
8.743507790651218,0.404
8.745505393527766,0.404
8.747502996404315,0.407
8.749500599280863,0.411
8.75149820215741,0.412
8.753495805033959,0.416
8.755493407910507,0.419
8.757491010787055,0.418
8.759488613663603,0.42
8.76148621654015,0.422
8.763483819416699,0.425
8.765481422293247,0.43
8.767479025169795,0.431
8.769476628046343,0.432
8.771474230922891,0.433
8.773471833799439,0.434
8.775469436675987,0.438
8.777467039552537,0.439
8.779464642429085,0.439
8.781462245305633,0.441
8.783459848182181,0.445
8.785457451058729,0.447
8.787455053935277,0.449
8.789452656811825,0.45
8.791450259688373,0.452
8.793447862564921,0.455
8.79544546544147,0.456
8.797443068318017,0.456
8.799440671194565,0.455
8.801438274071113,0.458
8.803435876947661,0.462
8.80543347982421,0.464
8.807431082700758,0.466
8.809428685577306,0.465
8.811426288453854,0.464
8.813423891330403,0.465
8.815421494206952,0.467
8.8174190970835,0.469
8.819416699960048,0.47
8.821414302836596,0.471
8.823411905713144,0.472
8.825409508589692,0.474
8.82740711146624,0.474
8.829404714342788,0.472
8.831402317219336,0.473
8.833399920095884,0.476
8.835397522972432,0.478
8.83739512584898,0.476
8.839392728725528,0.475
8.841390331602076,0.478
8.843387934478624,0.478
8.845385537355172,0.479
8.84738314023172,0.48
8.84938074310827,0.483
8.851378345984818,0.485
8.853375948861366,0.485
8.855373551737914,0.485
8.857371154614462,0.485
8.85936875749101,0.487
8.861366360367558,0.491
8.863363963244106,0.492
8.865361566120654,0.494
8.867359168997202,0.494
8.86935677187375,0.493
8.871354374750299,0.491
8.873351977626847,0.492
8.875349580503395,0.496
8.877347183379943,0.496
8.87934478625649,0.496
8.881342389133039,0.495
8.883339992009587,0.495
8.885337594886137,0.494
8.887335197762685,0.495
8.889332800639233,0.498
8.89133040351578,0.501
8.893328006392329,0.505
8.895325609268877,0.502
8.897323212145425,0.506
8.899320815021973,0.512
8.901318417898521,0.512
8.903316020775069,0.516
8.905313623651617,0.518
8.907311226528165,0.519
8.909308829404713,0.521
8.911306432281261,0.52
8.91330403515781,0.522
8.915301638034357,0.524
8.917299240910905,0.527
8.919296843787453,0.529
8.921294446664003,0.529
8.923292049540551,0.531
8.9252896524171,0.531
8.927287255293647,0.533
8.929284858170195,0.535
8.931282461046743,0.537
8.933280063923291,0.537
8.93527766679984,0.539
8.937275269676388,0.54
8.939272872552936,0.542
8.941270475429484,0.547
8.943268078306032,0.55
8.94526568118258,0.55
8.947263284059128,0.55
8.949260886935676,0.553
8.951258489812224,0.554
8.953256092688772,0.557
8.95525369556532,0.564
8.95725129844187,0.564
8.959248901318418,0.565
8.961246504194966,0.569
8.963244107071514,0.572
8.965241709948062,0.574
8.96723931282461,0.576
8.969236915701158,0.582
8.971234518577706,0.584
8.973232121454254,0.586
8.975229724330802,0.59
8.97722732720735,0.595
8.979224930083898,0.6
8.981222532960446,0.601
8.983220135836994,0.603
8.985217738713542,0.606
8.98721534159009,0.608
8.989212944466638,0.612
8.991210547343186,0.613
8.993208150219736,0.617
8.995205753096284,0.625
8.997203355972832,0.624
8.99920095884938,0.626
9.001198561725928,0.629
9.003196164602477,0.631
9.005193767479025,0.635
9.007191370355573,0.64
9.00918897323212,0.646
9.011186576108669,0.65
9.013184178985217,0.654
9.015181781861765,0.656
9.017179384738313,0.662
9.01917698761486,0.669
9.021174590491409,0.673
9.023172193367957,0.678
9.025169796244505,0.685
9.027167399121053,0.691
9.029165001997601,0.695
9.031162604874151,0.7
9.033160207750699,0.706
9.035157810627247,0.712
9.037155413503795,0.716
9.039153016380343,0.721
9.041150619256891,0.725
9.04314822213344,0.727
9.045145825009987,0.732
9.047143427886535,0.737
9.049141030763083,0.742
9.051138633639631,0.748
9.05313623651618,0.753
9.055133839392727,0.759
9.057131442269275,0.764
9.059129045145824,0.771
9.061126648022372,0.777
9.06312425089892,0.782
9.065121853775468,0.785
9.067119456652017,0.79
9.069117059528566,0.795
9.071114662405114,0.798
9.073112265281662,0.805
9.07510986815821,0.809
9.077107471034758,0.813
9.079105073911306,0.818
9.081102676787854,0.822
9.083100279664402,0.828
9.08509788254095,0.833
9.087095485417498,0.837
9.089093088294046,0.841
9.091090691170594,0.845
9.093088294047142,0.85
9.09508589692369,0.853
9.097083499800238,0.858
9.099081102676786,0.863
9.101078705553334,0.867
9.103076308429884,0.87
9.105073911306432,0.873
9.10707151418298,0.876
9.109069117059528,0.878
9.111066719936076,0.881
9.113064322812624,0.888
9.115061925689172,0.89
9.11705952856572,0.891
9.119057131442268,0.893
9.121054734318816,0.895
9.123052337195364,0.897
9.125049940071913,0.898
9.12704754294846,0.899
9.129045145825009,0.9
9.131042748701557,0.902
9.133040351578105,0.904
9.135037954454653,0.9
9.1370355573312,0.899
9.13903316020775,0.902
9.141030763084299,0.903
9.143028365960847,0.9
9.145025968837395,0.897
9.147023571713943,0.897
9.14902117459049,0.899
9.151018777467039,0.898
9.153016380343587,0.894
9.155013983220135,0.892
9.157011586096683,0.89
9.159009188973231,0.889
9.161006791849779,0.884
9.163004394726327,0.881
9.165001997602875,0.878
9.166999600479423,0.876
9.168997203355971,0.875
9.17099480623252,0.869
9.172992409109067,0.864
9.174990011985617,0.861
9.176987614862165,0.857
9.178985217738713,0.853
9.180982820615261,0.847
9.18298042349181,0.843
9.184978026368357,0.838
9.186975629244905,0.828
9.188973232121453,0.82
9.190970834998001,0.812
9.19296843787455,0.804
9.194966040751098,0.797
9.196963643627646,0.79
9.198961246504194,0.78
9.200958849380742,0.772
9.20295645225729,0.766
9.204954055133838,0.757
9.206951658010386,0.748
9.208949260886934,0.74
9.210946863763484,0.73
9.212944466640032,0.72
9.21494206951658,0.711
9.216939672393128,0.701
9.218937275269676,0.693
9.220934878146224,0.685
9.222932481022772,0.677
9.22493008389932,0.667
9.226927686775868,0.658
9.228925289652416,0.651
9.230922892528964,0.644
9.232920495405512,0.639
9.23491809828206,0.629
9.236915701158608,0.616
9.238913304035156,0.609
9.240910906911704,0.602
9.242908509788252,0.597
9.2449061126648,0.593
9.24690371554135,0.586
9.248901318417898,0.578
9.250898921294446,0.572
9.252896524170994,0.567
9.254894127047542,0.558
9.25689172992409,0.552
9.258889332800639,0.548
9.260886935677187,0.542
9.262884538553735,0.538
9.264882141430283,0.534
9.26687974430683,0.528
9.268877347183379,0.523
9.270874950059927,0.518
9.272872552936475,0.515
9.274870155813023,0.513
9.276867758689571,0.507
9.278865361566119,0.502
9.280862964442667,0.497
9.282860567319217,0.493
9.284858170195765,0.491
9.286855773072313,0.489
9.288853375948861,0.488
9.290850978825409,0.483
9.292848581701957,0.481
9.294846184578505,0.478
9.296843787455053,0.477
9.298841390331601,0.478
9.30083899320815,0.476
9.302836596084697,0.475
9.304834198961245,0.474
9.306831801837793,0.473
9.308829404714341,0.469
9.31082700759089,0.466
9.312824610467437,0.466
9.314822213343986,0.465
9.316819816220534,0.464
9.318817419097083,0.461
9.320815021973631,0.459
9.32281262485018,0.459
9.324810227726728,0.46
9.326807830603276,0.461
9.328805433479824,0.461
9.330803036356372,0.46
9.33280063923292,0.459
9.334798242109468,0.457
9.336795844986016,0.457
9.338793447862564,0.458
9.340791050739112,0.456
9.34278865361566,0.455
9.344786256492208,0.456
9.346783859368756,0.455
9.348781462245304,0.454
9.350779065121852,0.453
9.3527766679984,0.455
9.35477427087495,0.454
9.356771873751498,0.453
9.358769476628046,0.452
9.360767079504594,0.449
9.362764682381142,0.448
9.36476228525769,0.448
9.366759888134238,0.447
9.368757491010786,0.448
9.370755093887334,0.45
9.372752696763882,0.446
9.37475029964043,0.447
9.376747902516978,0.448
9.378745505393526,0.448
9.380743108270075,0.449
9.382740711146623,0.447
9.38473831402317,0.447
9.386735916899719,0.449
9.388733519776267,0.45
9.390731122652817,0.448
9.392728725529365,0.449
9.394726328405913,0.447
9.39672393128246,0.447
9.398721534159009,0.448
9.400719137035557,0.445
9.402716739912105,0.445
9.404714342788653,0.446
9.4067119456652,0.446
9.408709548541749,0.445
9.410707151418297,0.446
9.412704754294845,0.444
9.414702357171393,0.444
9.416699960047941,0.443
9.41869756292449,0.442
9.420695165801037,0.443
9.422692768677585,0.444
9.424690371554133,0.444
9.426687974430683,0.443
9.428685577307231,0.443
9.43068318018378,0.444
9.432680783060327,0.445
9.434678385936875,0.444
9.436675988813423,0.445
9.438673591689971,0.444
9.44067119456652,0.444
9.442668797443067,0.446
9.444666400319615,0.446
9.446664003196164,0.447
9.448661606072712,0.447
9.45065920894926,0.447
9.452656811825808,0.448
9.454654414702356,0.447
9.456652017578904,0.444
9.458649620455452,0.446
9.460647223332,0.446
9.46264482620855,0.448
9.464642429085098,0.448
9.466640031961646,0.444
9.468637634838194,0.445
9.470635237714742,0.444
9.47263284059129,0.444
9.474630443467838,0.444
9.476628046344386,0.444
9.478625649220934,0.445
9.480623252097482,0.447
9.48262085497403,0.448
9.484618457850578,0.448
9.486616060727126,0.447
9.488613663603674,0.448
9.490611266480222,0.449
9.49260886935677,0.448
9.494606472233318,0.45
9.496604075109866,0.45
9.498601677986416,0.451
9.500599280862964,0.454
9.502596883739512,0.453
9.50459448661606,0.452
9.506592089492608,0.454
9.508589692369156,0.452
9.510587295245704,0.45
9.512584898122252,0.452
9.5145825009988,0.452
9.516580103875349,0.451
9.518577706751897,0.45
9.520575309628445,0.45
9.522572912504993,0.45
9.52457051538154,0.453
9.526568118258089,0.453
9.528565721134637,0.454
9.530563324011185,0.455
9.532560926887733,0.453
9.534558529764283,0.456
9.53655613264083,0.46
9.538553735517379,0.459
9.540551338393927,0.46
9.542548941270475,0.459
9.544546544147023,0.458
9.546544147023571,0.459
9.548541749900119,0.46
9.550539352776667,0.462
9.552536955653215,0.461
9.554534558529763,0.461
9.556532161406311,0.462
9.55852976428286,0.461
9.560527367159407,0.458
9.562524970035955,0.46
9.564522572912503,0.463
9.566520175789051,0.462
9.5685177786656,0.458
9.57051538154215,0.459
9.572512984418697,0.46
9.574510587295245,0.457
9.576508190171793,0.458
9.578505793048341,0.457
9.58050339592489,0.458
9.582500998801438,0.461
9.584498601677986,0.46
9.586496204554534,0.459
9.588493807431082,0.459
9.59049141030763,0.46
9.592489013184178,0.459
9.594486616060726,0.458
9.596484218937274,0.458
9.598481821813822,0.458
9.60047942469037,0.456
9.602477027566918,0.455
9.604474630443466,0.457
9.606472233320016,0.458
9.608469836196564,0.457
9.610467439073112,0.457
9.61246504194966,0.457
9.614462644826208,0.457
9.616460247702756,0.456
9.618457850579304,0.455
9.620455453455852,0.456
9.6224530563324,0.459
9.624450659208948,0.457
9.626448262085496,0.456
9.628445864962044,0.456
9.630443467838592,0.452
9.63244107071514,0.453
9.634438673591688,0.455
9.636436276468237,0.453
9.638433879344785,0.455
9.640431482221333,0.452
9.642429085097882,0.448
9.64442668797443,0.448
9.646424290850979,0.447
9.648421893727527,0.447
9.650419496604075,0.445
9.652417099480623,0.445
9.65441470235717,0.445
9.656412305233719,0.444
9.658409908110267,0.443
9.660407510986815,0.444
9.662405113863363,0.446
9.664402716739911,0.444
9.666400319616459,0.442
9.668397922493007,0.44
9.670395525369555,0.44
9.672393128246103,0.439
9.674390731122651,0.441
9.6763883339992,0.44
9.678385936875749,0.439
9.680383539752297,0.439
9.682381142628845,0.438
9.684378745505393,0.439
9.686376348381941,0.438
9.68837395125849,0.438
9.690371554135037,0.436
9.692369157011585,0.435
9.694366759888133,0.433
9.696364362764681,0.431
9.69836196564123,0.433
9.700359568517777,0.432
9.702357171394326,0.434
9.704354774270874,0.434
9.706352377147422,0.435
9.70834998002397,0.435
9.710347582900518,0.433
9.712345185777066,0.432
9.714342788653616,0.432
9.716340391530164,0.432
9.718337994406712,0.431
9.72033559728326,0.43
9.722333200159808,0.429
9.724330803036356,0.428
9.726328405912904,0.428
9.728326008789452,0.426
9.730323611666,0.428
9.732321214542548,0.427
9.734318817419096,0.424
9.736316420295644,0.426
9.738314023172192,0.425
9.74031162604874,0.426
9.742309228925288,0.426
9.744306831801836,0.427
9.746304434678384,0.427
9.748302037554932,0.424
9.750299640431482,0.426
9.75229724330803,0.427
9.754294846184578,0.424
9.756292449061126,0.423
9.758290051937674,0.423
9.760287654814222,0.422
9.76228525769077,0.42
9.764282860567318,0.421
9.766280463443866,0.421
9.768278066320415,0.42
9.770275669196963,0.42
9.77227327207351,0.419
9.774270874950059,0.418
9.776268477826607,0.419
9.778266080703155,0.42
9.780263683579703,0.421
9.78226128645625,0.42
9.784258889332799,0.419
9.786256492209349,0.421
9.788254095085897,0.419
9.790251697962445,0.417
9.792249300838993,0.418
9.79424690371554,0.418
9.796244506592089,0.419
9.798242109468637,0.418
9.800239712345185,0.415
9.802237315221733,0.415
9.804234918098281,0.415
9.80623252097483,0.415
9.808230123851377,0.417
9.810227726727925,0.418
9.812225329604473,0.414
9.814222932481021,0.412
9.81622053535757,0.413
9.818218138234117,0.414
9.820215741110665,0.415
9.822213343987213,0.416
9.824210946863763,0.416
9.826208549740311,0.417
9.82820615261686,0.414
9.830203755493407,0.417
9.832201358369955,0.418
9.834198961246504,0.415
9.836196564123052,0.414
9.8381941669996,0.411
9.840191769876148,0.413
9.842189372752696,0.412
9.844186975629244,0.412
9.846184578505792,0.413
9.84818218138234,0.413
9.850179784258888,0.413
9.852177387135436,0.411
9.854174990011984,0.412
9.856172592888532,0.411
9.85817019576508,0.41
9.86016779864163,0.412
9.862165401518178,0.411
9.864163004394726,0.411
9.866160607271274,0.413
9.868158210147822,0.413
9.87015581302437,0.411
9.872153415900918,0.413
9.874151018777466,0.415
9.876148621654014,0.413
9.878146224530562,0.412
9.88014382740711,0.411
9.882141430283658,0.411
9.884139033160206,0.412
9.886136636036754,0.411
9.888134238913302,0.411
9.89013184178985,0.411
9.892129444666399,0.411
9.894127047542947,0.412
9.896124650419496,0.413
9.898122253296044,0.413
9.900119856172592,0.413
9.90211745904914,0.413
9.904115061925689,0.412
9.906112664802237,0.414
